;TIMESTAMP;ECG;EDA
0;1555650712;-0.06380820378384969;5.175781249999999
1;1555650713;-0.00911010095761102;5.25069580078125
2;1555650714;-0.01975112646838128;5.297851562499999
3;1555650715;-0.01827763501871331;5.2693359375
4;1555650716;-0.0029661092496889316;5.2604736328125
5;1555650717;0.09470035647917173;5.38651123046875
6;1555650718;0.08505933342190763;5.40966796875
7;1555650719;-0.12431120212472196;5.3807373046875
8;1555650720;0.01661117024654242;5.5162841796875
9;1555650721;-0.02082936468017911;5.6243408203125
10;1555650722;0.005298485296137619;5.82923583984375
11;1555650723;-0.013112394179100175;5.94779052734375
12;1555650724;-0.002310660464288849;6.10367431640625
13;1555650725;0.026121235736141953;5.812512207031249
14;1555650726;-0.016730462452044684;5.70384521484375
15;1555650727;0.02093940794527029;5.58076171875
16;1555650728;-0.03464429237644916;4.98314208984375
17;1555650729;0.011470762577237417;4.65225830078125
18;1555650730;0.00799947618200275;5.11380615234375
19;1555650731;-0.012819522480818068;5.3990234375
20;1555650732;0.006548942136872352;5.19041748046875
21;1555650733;-0.0007858094806052902;5.194921875
22;1555650734;-0.014889465648969777;5.33724365234375
23;1555650735;0.02352814499354059;5.44949951171875
24;1555650736;-0.004972573476413517;5.8603271484375
25;1555650737;0.013247034209596532;5.88623046875
26;1555650738;-0.008944730289336457;5.636328125
27;1555650739;0.004732829839911029;5.51317138671875
28;1555650740;-0.014177519420166552;5.50107421875
29;1555650741;0.005171822739586196;5.5271728515625
30;1555650742;0.008637423633898992;5.66900634765625
31;1555650743;-0.021223302796651255;5.6962890625
32;1555650744;0.0022982091375458066;5.59947509765625
33;1555650745;-0.004697926527100491;5.530224609375
34;1555650746;0.006213473161390212;5.48052978515625
35;1555650747;-0.004600955240906546;5.45535888671875
36;1555650748;0.014580840798374722;5.45052490234375
37;1555650749;-0.00954332698094185;5.47962646484375
38;1555650750;-0.0007564551893092582;5.6052490234375
39;1555650751;-0.0032274073746688084;5.75240478515625
40;1555650752;0.009659355073513055;5.7406494140625
41;1555650753;-0.0005101711196215644;5.7040771484375
42;1555650754;0.010559871508941294;5.75020751953125
43;1555650755;-0.005903772001663772;5.8324462890625
44;1555650756;0.0015843910249864555;5.9211181640625
45;1555650757;-0.004960697270968436;6.0969970703125
46;1555650758;-0.0005463344712100638;6.43173828125
47;1555650759;0.010450217531558288;6.5154541015625
48;1555650760;-0.016212161060620914;6.81343994140625
49;1555650761;-0.000547791854383474;6.8220947265625
50;1555650762;0.005901250090590321;6.756799316406249
51;1555650763;-0.023687478863725794;6.85233154296875
52;1555650764;0.022104141333929947;6.79847412109375
53;1555650765;-0.012547092379231453;6.71961669921875
54;1555650766;0.004392078279206251;6.75391845703125
55;1555650767;0.0065906433737600335;6.739648437499999
56;1555650768;-0.005995620125985687;6.7037353515625
57;1555650769;0.0032640201143076713;6.82086181640625
58;1555650770;-0.0030013785038797806;6.794677734375
59;1555650771;0.002093639256233332;6.72896728515625
60;1555650772;-0.0021909248850556515;6.738281249999999
61;1555650773;0.0009739662705249766;6.733325195312499
62;1555650774;0.004893523171976121;6.70281982421875
63;1555650775;-0.002933154239699459;6.671936035156249
64;1555650776;-0.0010020735197963108;6.656262207031249
65;1555650777;0.0064961467562137795;6.640624999999999
66;1555650778;0.00022180018209650088;6.640624999999999
67;1555650779;-0.005596789628288463;6.625292968749999
68;1555650780;0.021174014456144905;6.610681152343749
69;1555650781;-0.029942817550515203;6.5734619140625
70;1555650782;0.010328266979381107;6.527526855468749
71;1555650783;-0.009820406761576589;6.4950927734374995
72;1555650784;0.006514500710591848;6.46177978515625
73;1555650785;-0.00023449763580185896;6.4271606445312495
74;1555650786;0.002243052859952871;6.420068359374999
75;1555650787;-0.0006109034038313581;6.396484374999999
76;1555650788;-0.0016963077549192484;6.392395019531249
77;1555650789;-0.0017613720314275765;6.372766113281249
78;1555650790;0.005167323931533082;6.515832519531249
79;1555650791;-0.004456341770496203;6.72667236328125
80;1555650792;0.00420511601812628;6.758837890624999
81;1555650793;0.0023194524030403303;6.67156982421875
82;1555650794;-0.0056271424279176535;6.6158813476562495
83;1555650795;0.004975386433694766;6.5805419921875
84;1555650796;-0.00048764974289057457;6.5679687499999995
85;1555650797;-0.0037282700108776418;6.61138916015625
86;1555650798;0.0017865863294135285;6.5891357421875
87;1555650799;0.0013666931717404248;6.535046386718749
88;1555650800;0.0005693798115432052;6.71534423828125
89;1555650801;-0.004116423086945264;6.758569335937499
90;1555650802;0.020510303757154336;6.870324707031249
91;1555650803;-0.01867525055058371;7.022033691406249
92;1555650804;0.0009301697921177301;6.88323974609375
93;1555650805;0.01517563283309364;6.73519287109375
94;1555650806;-0.018379280591469156;6.6683715820312495
95;1555650807;0.0022872297203107225;6.7955810546875
96;1555650808;0.0004982797700765922;6.920397949218749
97;1555650809;0.006526696404252699;6.84658203125
98;1555650810;-0.0040789838434325265;6.898803710937499
99;1555650811;0.01556622369815266;6.9234985351562495
100;1555650812;-0.018852686278422758;6.96248779296875
101;1555650813;0.003929534151167052;7.09466552734375
102;1555650814;0.0044121023953623256;7.0220703125
103;1555650815;-0.0015359747593477336;7.024108886718749
104;1555650816;-0.002563249194491805;7.047509765624999
105;1555650817;0.011415954217107374;6.986621093749999
106;1555650818;-0.003686986850651629;6.94307861328125
107;1555650819;-0.008653090558215105;6.933593749999999
108;1555650820;-0.003544812821026792;6.935534667968749
109;1555650821;-0.0008354916903816712;6.988623046875
110;1555650822;0.00380975125920691;6.994775390624999
111;1555650823;0.004366738315773028;6.982421874999999
112;1555650824;-0.0004756012283794799;6.9944824218749995
113;1555650825;-0.0001794167974478199;7.026306152343749
114;1555650826;0.010976188537657947;7.2179931640624995
115;1555650827;0.00029071546853360095;7.348657226562499
116;1555650828;-0.019768543830221537;7.261828613281249
117;1555650829;0.0017444541975431117;7.4771240234375
118;1555650830;-0.0016861325718880806;7.52047119140625
119;1555650831;0.001758678939533074;7.37091064453125
120;1555650832;-0.0002511879414290003;7.26959228515625
121;1555650833;0.006342919466963241;7.224108886718749
122;1555650834;0.0019675434676070325;7.2188720703125
123;1555650835;-0.0019700787149252623;7.40518798828125
124;1555650836;-0.0008652753559460436;7.498425292968749
125;1555650837;0.0008593857171513506;7.45560302734375
126;1555650838;-0.0002894176465807282;7.4018920898437495
127;1555650839;0.004054596700758729;7.397460937499999
128;1555650840;0.011110813327674798;7.5576416015625
129;1555650841;-0.013729184714946462;7.76490478515625
130;1555650842;-0.007558226306524222;7.745227050781249
131;1555650843;-0.0023216290831276974;7.744946289062499
132;1555650844;0.0015465608359814093;7.726013183593749
133;1555650845;0.0035523699342749748;7.718310546875
134;1555650846;-0.002431183408005631;7.7627319335937495
135;1555650847;0.006490208036369857;7.78011474609375
136;1555650848;-0.004913248793421351;7.84564208984375
137;1555650849;0.00294107905543038;7.9171142578125
138;1555650850;-0.0008595829217291138;7.94725341796875
139;1555650851;0.0007498368971053382;8.030041503906249
140;1555650852;-0.0006290783384261668;8.25467529296875
141;1555650853;0.0011448841696929386;8.27822265625
142;1555650854;0.0009415267810947005;8.227539062499998
143;1555650855;0.0012018310073623646;8.227539062499998
144;1555650856;0.002872058101317923;8.20533447265625
145;1555650857;0.009784183932812978;8.25919189453125
146;1555650858;-0.020857604969449262;8.35001220703125
147;1555650859;0.00015973036427462318;8.41763916015625
148;1555650860;0.000219945732207837;8.40931396484375
149;1555650861;0.0002586999251788074;8.4136962890625
150;1555650862;-0.0022559531296364823;8.3984375
151;1555650863;0.0020660951241539983;8.3932373046875
152;1555650864;0.0009333139805540368;8.373095703124998
153;1555650865;0.0013687634306449013;8.402392578125
154;1555650866;0.00147542288742655;8.456884765625
155;1555650867;0.003039214758931499;8.40770263671875
156;1555650868;0.004755619778761422;8.3711181640625
157;1555650869;-0.006959814803822745;8.33563232421875
158;1555650870;0.004544760665711914;8.3941650390625
159;1555650871;-0.0013915657576241975;8.5845703125
160;1555650872;-0.001934127645288405;8.50343017578125
161;1555650873;-0.0009448530277753166;8.3875244140625
162;1555650874;0.004716650510769562;8.366906738281248
163;1555650875;-0.0056156584125738275;8.29571533203125
164;1555650876;0.005150780580877291;8.3395263671875
165;1555650877;-0.004093592550561318;8.42724609375
166;1555650878;0.0013220123482399954;8.28719482421875
167;1555650879;0.001577556565526345;8.1634765625
168;1555650880;0.010233559488268762;8.10899658203125
169;1555650881;-0.017329770415264827;8.0843017578125
170;1555650882;-0.0005563176941960182;8.044482421875
171;1555650883;0.0008501206653479788;8.071044921875
172;1555650884;-0.0024967057235299717;8.03016357421875
173;1555650885;0.009781380617898034;8.1314453125
174;1555650886;0.009202455212697426;8.32696533203125
175;1555650887;-0.011651629342473734;8.20506591796875
176;1555650888;-0.0015576825476094284;8.15328369140625
177;1555650889;-0.002042461791882821;8.13231201171875
178;1555650890;0.0180724798057837;8.15108642578125
179;1555650891;-0.014254213526294527;8.29039306640625
180;1555650892;-0.0003488110092950613;8.28084716796875
181;1555650893;0.012621336281789327;8.22537841796875
182;1555650894;-0.004570546430192649;8.13153076171875
183;1555650895;-0.007511847351214159;8.0201171875
184;1555650896;-0.002870585781634434;7.9755004882812495
185;1555650897;-0.005049325240011479;7.92225341796875
186;1555650898;0.0005727964466499622;7.88621826171875
187;1555650899;0.0024200724566027015;7.840417480468749
188;1555650900;0.002624158589046466;7.81002197265625
189;1555650901;0.010494986532129566;7.7881103515625
190;1555650902;-0.004736226126319406;7.79342041015625
191;1555650903;-0.005593960842018894;7.77193603515625
192;1555650904;0.015440842512452604;7.87298583984375
193;1555650905;-0.005595173344040462;8.0082275390625
194;1555650906;-0.011316779946755754;8.1767578125
195;1555650907;-0.0029141768082760586;8.1964111328125
196;1555650908;0.0012640738305883627;8.21959228515625
197;1555650909;0.0006874759906658308;8.4224365234375
198;1555650910;0.0005909396841776277;8.3357177734375
199;1555650911;0.0004897035433972214;8.2334228515625
200;1555650912;0.0030311981896147763;8.1669189453125
201;1555650913;-0.002546773908934957;8.090234375
202;1555650914;0.007369863613384536;8.011376953125
203;1555650915;-0.005648206497711461;7.94849853515625
204;1555650916;0.0015358813721586054;8.01785888671875
205;1555650917;0.0025269971010235914;8.07230224609375
206;1555650918;-0.004040370675950029;7.9056396484375
207;1555650919;-0.004984449370886091;7.77158203125
208;1555650920;0.006001535856047881;7.747363281249999
209;1555650921;0.008171982468954498;7.7036499023437495
210;1555650922;0.000285946066128947;7.6904296875
211;1555650923;-0.009158294079658645;7.6835205078125
212;1555650924;-0.0015461480011423646;7.616455078124999
213;1555650925;0.0029619202004496736;7.55771484375
214;1555650926;-0.0019590235360977606;7.503869628906249
215;1555650927;-0.0015789839954333546;7.45145263671875
216;1555650928;0.005207501743803295;7.62332763671875
217;1555650929;-0.003962774984783381;7.7931640625
218;1555650930;0.00138516588370714;7.75330810546875
219;1555650931;0.007663523840274187;7.68372802734375
220;1555650932;-0.009056983368205037;7.625061035156249
221;1555650933;-0.0021537182851139817;7.600463867187499
222;1555650934;-0.0012912517132440272;7.5639892578125
223;1555650935;-0.0008166646712523759;7.509387207031249
224;1555650936;-0.0006518411869341197;7.497375488281249
225;1555650937;4.635034506471239e-05;7.466516113281249
226;1555650938;-0.001017524925123462;7.4264404296875
227;1555650939;0.001919469802992594;7.382885742187499
228;1555650940;-0.001133004677082671;7.33076171875
229;1555650941;-0.0014354516901783029;7.290979003906249
230;1555650942;0.0002974065861465167;7.254101562499999
231;1555650943;0.0024483350319467966;7.228588867187499
232;1555650944;-0.0006996747882811973;7.2021484375
233;1555650945;-0.0011860826909732601;7.2021484375
234;1555650946;0.004935401372499311;7.16845703125
235;1555650947;0.005007259648103136;7.131945800781249
236;1555650948;0.007473958765323637;7.104492187499999
237;1555650949;-0.007604515688773331;7.094555664062499
238;1555650950;-0.004965425342569914;7.05570068359375
239;1555650951;0.01590821452848533;7.1213623046875
240;1555650952;-0.0009941272479912237;7.29808349609375
241;1555650953;-0.0035351573339484433;7.33226318359375
242;1555650954;-0.011740683532806342;7.61160888671875
243;1555650955;-0.003506155652308497;7.68333740234375
244;1555650956;0.0003648831332912831;7.64090576171875
245;1555650957;-0.001642450351763014;7.57088623046875
246;1555650958;0.0015389133902119264;7.727392578125
247;1555650959;-0.0013340740318243777;7.78558349609375
248;1555650960;0.0036257439848154586;7.64989013671875
249;1555650961;-0.001331755587511169;7.5624755859375
250;1555650962;-0.0016756911328919795;7.524804687499999
251;1555650963;0.003195541361698378;7.495849609374999
252;1555650964;0.0019082860727409987;7.472863769531249
253;1555650965;-0.0032376257159553315;7.43134765625
254;1555650966;0.0048879346773987925;7.374084472656249
255;1555650967;-0.0010428129981000425;7.348632812499999
256;1555650968;0.0010117376666914093;7.350598144531249
257;1555650969;0.0015653461247807584;7.3230224609375
258;1555650970;-0.003995243703775125;7.28856201171875
259;1555650971;0.011043603752186163;7.22232666015625
260;1555650972;-0.00909189520830415;7.170458984375
261;1555650973;0.0036816640036434227;7.118701171874999
262;1555650974;-0.0007218821085118696;7.08740234375
263;1555650975;-0.007869102511718643;7.045312499999999
264;1555650976;-0.0013410729591635724;7.029956054687499
265;1555650977;-0.0004431273854998735;7.003906249999999
266;1555650978;0.0014272084485770719;7.051293945312499
267;1555650979;4.9692090290454974e-05;7.24918212890625
268;1555650980;0.005213387801737315;7.2651123046874995
269;1555650981;0.0013445015430310285;7.210009765625
270;1555650982;0.010548154633562;7.17391357421875
271;1555650983;0.0009018413445360066;7.127648925781249
272;1555650984;-0.00794820827327904;7.09298095703125
273;1555650985;-0.006949446383755211;7.05635986328125
274;1555650986;0.0017563058741716703;7.016735839843749
275;1555650987;-7.558241735392973e-05;6.996362304687499
276;1555650988;0.0017049875123365615;6.981896972656249
277;1555650989;0.01184493808192349;6.991516113281249
278;1555650990;-0.008142198094074937;6.974133300781249
279;1555650991;0.0012554234555051307;6.93441162109375
280;1555650992;0.009069217081229465;6.928967285156249
281;1555650993;-0.011523718932408443;6.909179687499999
282;1555650994;-0.002754444351550795;6.882397460937499
283;1555650995;0.00041808055207827116;6.8443359375
284;1555650996;0.00013689237197625243;6.82431640625
285;1555650997;-0.00031772891007291544;6.93065185546875
286;1555650998;0.012079494372016058;7.047851562499999
287;1555650999;0.000622141844438078;7.0228637695312495
288;1555651000;0.00032687378561135384;6.988513183593749
289;1555651001;-0.017229600385572058;6.960400390625
290;1555651002;-0.0006150929871199559;6.9150146484374995
291;1555651003;0.0005588775149302966;6.909179687499999
292;1555651004;-0.002620692164786424;6.909179687499999
293;1555651005;-0.0012240067393886488;6.87359619140625
294;1555651006;0.0016350734268547413;6.777294921875
295;1555651007;-0.0022285226170608023;6.7358764648437495
296;1555651008;0.001442152994864052;6.7082275390625
297;1555651009;0.0002661089115588253;6.68912353515625
298;1555651010;0.00443896431617984;6.642834472656249
299;1555651011;0.0007506281460435011;6.60438232421875
300;1555651012;0.00173222683693568;6.57498779296875
301;1555651013;0.006109238837442649;6.549670410156249
302;1555651014;-0.004881361250106504;6.5163330078124995
303;1555651015;-0.0022781844547887474;6.4737060546875
304;1555651016;-8.682062812522125e-05;6.52015380859375
305;1555651017;-0.0010437381926659713;6.7188232421875
306;1555651018;0.005678397293521077;6.766918945312499
307;1555651019;0.0051617982586148305;6.748181152343749
308;1555651020;0.002582433225463695;6.71551513671875
309;1555651021;-0.009923968160864143;6.68494873046875
310;1555651022;-0.008148661697301326;6.635632324218749
311;1555651023;-0.00039118402381593733;6.69725341796875
312;1555651024;-0.0002649485318453427;6.868798828124999
313;1555651025;0.0009565408575050538;7.006066894531249
314;1555651026;8.170187169559623e-05;6.990319824218749
315;1555651027;0.0024587295149977434;6.998950195312499
316;1555651028;0.0049739868155288195;6.989379882812499
317;1555651029;-0.00412976003129107;7.0477661132812495
318;1555651030;0.0006870168622244198;7.056640625
319;1555651031;0.005791754639523462;6.993713378906249
320;1555651032;0.005676196240949055;6.982421874999999
321;1555651033;-0.012575216147632575;6.97138671875
322;1555651034;0.0004421285645380012;6.94937744140625
323;1555651035;0.0034914571153339823;6.890197753906249
324;1555651036;0.005755372443636244;6.846630859375
325;1555651037;0.003198884173250633;6.8216064453125
326;1555651038;-0.009386474656911427;6.8359375
327;1555651039;-0.007239901587227821;6.78321533203125
328;1555651040;-0.00016305169023950164;6.750854492187499
329;1555651041;0.003758122307561041;6.93343505859375
330;1555651042;0.0030408954938592847;6.9636962890625
331;1555651043;0.0002950274839139255;6.887048339843749
332;1555651044;0.0026716408654280334;6.84151611328125
333;1555651045;-0.011593530632854409;6.81976318359375
334;1555651046;0.008713206370789754;7.0279052734375
335;1555651047;-0.008274373649616388;7.29241943359375
336;1555651048;0.017114337090386234;7.2891601562499995
337;1555651049;-0.007127454972246511;7.375476074218749
338;1555651050;-0.008525700261504536;7.32861328125
339;1555651051;0.010158673524450197;7.298901367187499
340;1555651052;-0.004144328376266614;7.255090332031249
341;1555651053;-0.00458843044773625;7.190185546875
342;1555651054;-0.0013373739942911483;7.1474365234374995
343;1555651055;0.00022507546312592268;7.128906249999999
344;1555651056;0.0008229897293579702;7.1092285156249995
345;1555651057;0.000785699713246588;7.109008789062499
346;1555651058;0.005424905994830331;7.0844970703125
347;1555651059;0.000638402085867051;7.0181030273437495
348;1555651060;0.00015641664358112295;6.984484863281249
349;1555651061;0.010801828879264168;6.943896484375
350;1555651062;-0.0033259683963969716;6.912658691406249
351;1555651063;-0.0007654111271221338;6.879528808593749
352;1555651064;-0.010182966500157055;6.8414306640625
353;1555651065;0.00024219967739147022;6.80863037109375
354;1555651066;0.0020204576715217993;6.776684570312499
355;1555651067;0.013118638964437001;6.72222900390625
356;1555651068;-0.0038997362529116556;6.6928466796875
357;1555651069;-0.0038859585463006155;6.665039062499999
358;1555651070;-0.012524210102126752;6.688647460937499
359;1555651071;0.0021581561583512376;6.7098876953125
360;1555651072;-0.002145233111435673;6.684204101562499
361;1555651073;0.004003373497378576;6.689453124999999
362;1555651074;0.005729608992414065;6.634777832031249
363;1555651075;-0.0030833542568259;6.59078369140625
364;1555651076;-0.0005924242824551146;6.551831054687499
365;1555651077;-0.001832644161131613;6.515002441406249
366;1555651078;0.001922890356912759;6.4697265625
367;1555651079;0.002401024929477754;6.4333984375
368;1555651080;-0.0035144565490031667;6.407495117187499
369;1555651081;0.002393939995527346;6.401818847656249
370;1555651082;-0.007232451896821282;6.396850585937499
371;1555651083;0.005709087660475677;6.404772949218749
372;1555651084;0.0038975899850780217;6.438244628906249
373;1555651085;-0.0020234807418276664;6.510314941406249
374;1555651086;0.007803381910012492;6.44820556640625
375;1555651087;-0.007739849132932209;6.417871093749999
376;1555651088;0.0033525128423479806;6.417321777343749
377;1555651089;-0.0015341303409269606;6.727197265625
378;1555651090;-0.010694320661025146;6.98641357421875
379;1555651091;0.0022204728214461978;7.214672851562499
380;1555651092;-0.0008721626200493984;7.5248291015625
381;1555651093;0.004071765828340897;7.517968749999999
382;1555651094;0.005432402362693981;7.438720703125
383;1555651095;0.005593311884381662;7.404919433593749
384;1555651096;-0.00880592276503261;7.394897460937499
385;1555651097;-0.0003848537145570566;7.3675903320312495
386;1555651098;0.014222483065413264;7.3155029296875
387;1555651099;-0.019069507416349166;7.281213378906249
388;1555651100;0.003556871854548534;7.265612792968749
389;1555651101;0.0034045544824021948;7.232653808593749
390;1555651102;0.0016185347728155954;7.19039306640625
391;1555651103;-0.007829688056548663;7.147839355468749
392;1555651104;0.008231135529855724;7.152575683593749
393;1555651105;0.003944240031005888;7.23770751953125
394;1555651106;-0.008792670134258967;7.19031982421875
395;1555651107;0.0011490881718079066;7.114379882812499
396;1555651108;0.0016829212784174202;7.07581787109375
397;1555651109;0.008248930647850245;7.08203125
398;1555651110;-0.0017701409677102907;7.157910156249999
399;1555651111;-0.00498461730906845;7.141162109374999
400;1555651112;-0.009847419104592258;7.07850341796875
401;1555651113;-0.0005206647899302771;7.023181152343749
402;1555651114;-0.0008085879040680635;6.979992675781249
403;1555651115;0.0035059208772499446;6.925341796875
404;1555651116;-0.0013001173868654181;6.877246093749999
405;1555651117;0.0013294484563052575;6.84327392578125
406;1555651118;0.006667193802013424;6.80059814453125
407;1555651119;-0.0042490624561984285;6.742395019531249
408;1555651120;-0.00023846325198552515;6.7079345703125
409;1555651121;0.003930110125744439;6.662194824218749
410;1555651122;0.0018341226683692257;6.636230468749999
411;1555651123;0.010691012577095229;6.609790039062499
412;1555651124;-0.01997512934089613;6.56181640625
413;1555651125;0.00010271365977721246;6.5245117187499995
414;1555651126;-0.0021609133523773478;6.47763671875
415;1555651127;0.0020789460446306012;6.4314208984375
416;1555651128;-0.00034119010860237265;6.390100097656249
417;1555651129;0.003134460546324506;6.33892822265625
418;1555651130;0.004923094385236398;6.2833618164062495
419;1555651131;-0.0027176414228584213;6.23345947265625
420;1555651132;-0.00013357456128845752;6.19730224609375
421;1555651133;0.0005690355811161153;6.148559570312499
422;1555651134;0.002858310120093088;6.09462890625
423;1555651135;-0.002270875618380223;6.052856445312499
424;1555651136;0.009309085713708564;6.015563964843749
425;1555651137;0.0028510804117965133;6.1260498046875
426;1555651138;0.0010349662034381784;6.1974365234375
427;1555651139;-0.016259128253610172;6.130541992187499
428;1555651140;0.0014038183753965487;6.0751708984375
429;1555651141;-0.0031602244789605033;6.0385498046874995
430;1555651142;-0.002821604701055991;5.9956298828125
431;1555651143;0.0020090107023545377;6.0155029296875
432;1555651144;-0.0027113256001804814;6.079113769531249
433;1555651145;0.0024740922962266675;6.059997558593749
434;1555651146;-0.0010421204016464777;6.036987304687499
435;1555651147;1.9719849828452725e-05;6.1650390625
436;1555651148;0.004238131338575861;6.19803466796875
437;1555651149;-0.0004426017219410204;6.139880371093749
438;1555651150;0.0015717635063791733;6.11005859375
439;1555651151;0.004742837712799186;6.0863037109375
440;1555651152;-0.005536457365979103;6.0624145507812495
441;1555651153;1.6361441485524194e-06;6.0514282226562495
442;1555651154;0.0016324905015021656;6.008850097656249
443;1555651155;-0.0007361839660601996;6.126904296874999
444;1555651156;0.0027227285482239044;6.2255859375
445;1555651157;-0.002916088664804771;6.1803466796875
446;1555651158;-0.000855827125658694;6.193957519531249
447;1555651159;0.001511789527392942;6.47359619140625
448;1555651160;-0.0009213072063558498;6.548974609374999
449;1555651161;0.0012813742583395013;6.539355468749999
450;1555651162;-0.001584749419859035;6.706469726562499
451;1555651163;0.0012664983386374696;6.82637939453125
452;1555651164;0.006192174511064324;6.88406982421875
453;1555651165;0.007049656574182593;7.0535034179687495
454;1555651166;-0.0026468031623334363;7.026245117187499
455;1555651167;-0.0061289910716494774;6.985791015624999
456;1555651168;-0.010033317912715415;6.9263916015625
457;1555651169;-0.0008404609992460478;6.882922363281249
458;1555651170;0.0003684622614875815;6.8488037109375
459;1555651171;0.0013201285186857997;6.797705078125
460;1555651172;0.0005149328927455734;6.7428955078124995
461;1555651173;0.005158984538551206;6.71947021484375
462;1555651174;0.00014036896790055848;6.70687255859375
463;1555651175;-0.0011941828312037376;6.6974243164062495
464;1555651176;-0.0012959197810841637;6.772534179687499
465;1555651177;0.0013860910520022288;6.747583007812499
466;1555651178;0.0017758578570507345;6.70260009765625
467;1555651179;0.01158037685299687;6.646606445312499
468;1555651180;-0.00021050775268913484;6.60345458984375
469;1555651181;-0.005969695625954935;6.55159912109375
470;1555651182;-0.013007318432053784;6.494470214843749
471;1555651183;-0.0015756405894302493;6.44390869140625
472;1555651184;0.0007451724694506448;6.4007934570312495
473;1555651185;0.004770269575664673;6.34625244140625
474;1555651186;0.002792412160065539;6.42388916015625
475;1555651187;-0.0008734483482926143;7.03482666015625
476;1555651188;0.004522195315963761;7.541162109375
477;1555651189;-0.006075053903328739;7.5354248046875
478;1555651190;-0.0012069719851854602;7.38822021484375
479;1555651191;-0.0025914664629446936;7.296240234375
480;1555651192;-0.0008242970761656118;7.232104492187499
481;1555651193;0.00035377864211407975;7.19039306640625
482;1555651194;-0.0017665249096645026;7.149804687499999
483;1555651195;-0.0005489252150957545;7.106616210937499
484;1555651196;0.0009967426425052692;7.05076904296875
485;1555651197;0.0032271724395554883;7.038513183593749
486;1555651198;-0.0021110993230954176;7.09930419921875
487;1555651199;0.0026397221967643988;7.090966796875
488;1555651200;0.005846991758579441;7.1196655273437495
489;1555651201;0.01011109768260143;6.97821044921875
490;1555651202;0.002138143959944023;6.918273925781249
491;1555651203;0.0008425360173796874;6.8888305664062495
492;1555651204;8.483447945551698e-05;6.853051757812499
493;1555651205;-0.009612815870571561;6.86531982421875
494;1555651206;0.005893343709186667;7.252319335937499
495;1555651207;-0.011370057400040809;7.3980468749999995
496;1555651208;-0.004187307319308251;7.28946533203125
497;1555651209;-0.003642102784155945;7.294628906249999
498;1555651210;0.001412413325891683;7.2490600585937495
499;1555651211;-0.0008028858959018667;7.17696533203125
500;1555651212;-0.0003063189223265482;7.102990722656249
501;1555651213;0.005411633536807845;7.05474853515625
502;1555651214;0.005261109058637332;7.031249999999999
503;1555651215;-0.004971140432634117;7.085681152343749
504;1555651216;0.005842445680987631;7.129101562499999
505;1555651217;-0.006981731892529378;7.1005004882812495
506;1555651218;0.005232237761797877;7.0565673828125
507;1555651219;0.0026265965005726095;7.027770996093749
508;1555651220;-0.00722127242685404;6.997521972656249
509;1555651221;0.017013738494108116;6.94444580078125
510;1555651222;-0.019121399957490206;6.903991699218749
511;1555651223;0.003250218711371067;6.856311035156249
512;1555651224;-0.003069077844092627;6.84117431640625
513;1555651225;-0.002955215428797763;6.930749511718749
514;1555651226;0.00015727541429845293;6.9182495117187495
515;1555651227;0.0024103708081273548;6.933898925781249
516;1555651228;0.006533259823643192;6.93883056640625
517;1555651229;0.002338794989974163;6.921582031249999
518;1555651230;-0.0071208983410417466;6.893066406249999
519;1555651231;0.0018222640253711217;6.860351562499999
520;1555651232;0.004646208175028953;6.83641357421875
521;1555651233;0.0014660287603871813;6.8932861328125
522;1555651234;-0.009253163554095441;6.879650878906249
523;1555651235;-0.004239127623039226;6.857556152343749
524;1555651236;0.00479896069797935;6.83070068359375
525;1555651237;0.0005138306014871992;6.803393554687499
526;1555651238;-0.0032354173762293176;6.777575683593749
527;1555651239;0.0067969422726670515;6.72572021484375
528;1555651240;-0.0009007811831150427;6.682116699218749
529;1555651241;0.01128056752723909;6.652148437499999
530;1555651242;-0.01537956309522261;6.620239257812499
531;1555651243;0.018785955278286956;6.58896484375
532;1555651244;-0.006489759490079914;6.57689208984375
533;1555651245;-0.008571991745218076;6.60753173828125
534;1555651246;0.002107823438660002;6.591796875
535;1555651247;-0.006893540094710206;6.5550048828125
536;1555651248;-0.0023771583871153735;6.5120605468749995
537;1555651249;0.0018278908968830572;6.5006469726562495
538;1555651250;-0.0020824451620885327;6.44793701171875
539;1555651251;0.003034171835650668;6.415466308593749
540;1555651252;-0.00186591608386016;6.46129150390625
541;1555651253;0.0031406164218277625;6.43193359375
542;1555651254;0.00040476224882356795;6.3931030273437495
543;1555651255;0.00121038327055209;6.34229736328125
544;1555651256;0.004108717049093749;6.294079589843749
545;1555651257;-0.0008485996871555536;6.246276855468749
546;1555651258;-0.0022408412177837233;6.2255859375
547;1555651259;-0.00015933892734585776;6.2080810546875
548;1555651260;0.0007673171488778303;6.24437255859375
549;1555651261;0.010985125707124819;6.413525390625
550;1555651262;0.00265387130138573;6.6891357421875
551;1555651263;-0.014086985570146555;6.925390625
552;1555651264;-0.004717801081600287;7.10849609375
553;1555651265;0.0002050866100171893;7.151599121093749
554;1555651266;0.0005294393584417161;7.18924560546875
555;1555651267;-0.0018190444661896107;7.297912597656249
556;1555651268;0.0027270619489932458;7.465234374999999
557;1555651269;0.007985940422834965;7.519909667968749
558;1555651270;-0.005696536864149628;7.418603515625
559;1555651271;0.0035928186552231295;7.3489746093749995
560;1555651272;-0.00332067985623005;7.4388916015625
561;1555651273;-0.0018060409126129569;7.71923828125
562;1555651274;0.0017217338186345664;7.78768310546875
563;1555651275;0.001148009168521592;7.80579833984375
564;1555651276;0.003516662843485408;7.79609375
565;1555651277;0.002488116693491171;7.742395019531249
566;1555651278;0.006531772221055815;7.713159179687499
567;1555651279;-0.013528930238885403;7.6786865234375
568;1555651280;-0.0032939538697723983;7.66053466796875
569;1555651281;-0.0013223433728426787;7.630676269531249
570;1555651282;1.997680155112343e-05;7.5794921875
571;1555651283;0.0006040918386563661;7.524377441406249
572;1555651284;0.006514591147742613;7.485668945312499
573;1555651285;0.0008369587040023952;7.51239013671875
574;1555651286;0.0007633269576773417;7.491345214843749
575;1555651287;0.0009857772282177775;7.45185546875
576;1555651288;0.00024758414395481006;7.4221435546875
577;1555651289;0.0015867821246529508;7.4072631835937495
578;1555651290;-0.006248858809908379;7.367724609374999
579;1555651291;0.003168062745114027;7.3334228515625
580;1555651292;0.002628178766092396;7.30494384765625
581;1555651293;-0.002527065922850523;7.261035156249999
582;1555651294;0.0022356503821739817;7.276318359374999
583;1555651295;-0.002827295735939372;7.53094482421875
584;1555651296;0.003765136914234931;7.617187499999999
585;1555651297;-0.0037055926450115643;7.67550048828125
586;1555651298;-0.0029666570258786713;7.62999267578125
587;1555651299;0.018675407103361876;7.65174560546875
588;1555651300;-0.0031105722474292466;7.615979003906249
589;1555651301;-0.0013674797405512213;7.44239501953125
590;1555651302;-0.012875898608249963;7.396630859374999
591;1555651303;0.008279951335896494;7.506774902343749
592;1555651304;-0.002139947387652833;7.500988769531249
593;1555651305;-0.012299663499562493;7.505175781249999
594;1555651306;-0.0003479665109442433;7.480163574218749
595;1555651307;-0.002411295021687127;7.463562011718749
596;1555651308;0.0018102488727747663;7.43092041015625
597;1555651309;0.001198770747821574;7.390710449218749
598;1555651310;0.0021896662237095034;7.361926269531249
599;1555651311;0.0023358196478249667;7.3307373046875
600;1555651312;-0.00032571063844888593;7.3237548828125
601;1555651313;-0.0023033670444662716;7.299804687499999
602;1555651314;-0.0027983423717445515;7.278491210937499
603;1555651315;-0.00038795794445769746;7.294995117187499
604;1555651316;0.0011845600659484761;7.38631591796875
605;1555651317;-0.0018598294482947042;7.3997802734375
606;1555651318;0.002863462631496934;7.39910888671875
607;1555651319;0.00029895004397885824;7.607568359375
608;1555651320;-0.0012403913031983694;7.502563476562499
609;1555651321;0.002969505546278982;7.535986328125
610;1555651322;-0.0022585800214221497;7.436474609374999
611;1555651323;0.00477770861462991;7.3521484374999995
612;1555651324;-0.0020932542040928157;7.3129638671875
613;1555651325;-0.003911785862286501;7.2588867187499995
614;1555651326;0.0011312648427309517;7.20517578125
615;1555651327;-0.000429485031517904;7.160656738281249
616;1555651328;-0.0029429525250234726;7.1058715820312495
617;1555651329;0.002371580560511234;7.04404296875
618;1555651330;1.956685774371173e-05;6.999353027343749
619;1555651331;-0.002801545593869687;6.96864013671875
620;1555651332;0.002527373210071456;6.91776123046875
621;1555651333;0.0025797763733971797;6.8470703125
622;1555651334;0.011824126633761377;6.81317138671875
623;1555651335;-0.010024612421515837;6.739001464843749
624;1555651336;0.0023483497972111357;6.770166015625
625;1555651337;0.0006256887324204849;6.88231201171875
626;1555651338;0.002378132443562124;6.84891357421875
627;1555651339;0.004775090144696038;6.79539794921875
628;1555651340;-0.013602382930501948;6.7201416015625
629;1555651341;-0.0018965664683541265;6.665429687499999
630;1555651342;4.647984894067698e-05;6.620129394531249
631;1555651343;0.006093942601858757;6.574609375
632;1555651344;0.0031614305843439047;6.542309570312499
633;1555651345;-0.0051343958231798445;6.504577636718749
634;1555651346;0.013562262371911597;6.45032958984375
635;1555651347;-0.010066878894602728;6.3935913085937495
636;1555651348;-0.002032279811624139;6.34981689453125
637;1555651349;0.0015666624091759227;6.3231567382812495
638;1555651350;-0.00011293506296842677;6.278124999999999
639;1555651351;0.013014177597077447;6.229052734375
640;1555651352;-0.016770027085133487;6.2032958984375
641;1555651353;0.006668805603900328;6.25341796875
642;1555651354;-7.200267884322511e-05;6.36939697265625
643;1555651355;0.005936664725341238;6.31939697265625
644;1555651356;0.005399564502278543;6.1768554687499995
645;1555651357;-0.00947746040527372;6.144067382812499
646;1555651358;0.010798334062787095;6.0925048828125
647;1555651359;-0.009255438670831135;6.049645996093749
648;1555651360;-0.010760528130430172;5.99700927734375
649;1555651361;-0.0020810699529208673;5.940515136718749
650;1555651362;0.008721918310666939;5.932421874999999
651;1555651363;0.0024782888638802715;6.16937255859375
652;1555651364;-0.004493705927245445;6.37554931640625
653;1555651365;-0.0023521750436796825;6.37049560546875
654;1555651366;-0.0014132266764459499;6.428723144531249
655;1555651367;0.0015664682737799843;6.3618530273437495
656;1555651368;-0.00015257953303740712;6.288378906249999
657;1555651369;-0.0003758314411077951;6.4014404296875
658;1555651370;-0.006329412923027717;6.382641601562499
659;1555651371;0.01537468189286879;6.38946533203125
660;1555651372;0.004258570238078757;6.386889648437499
661;1555651373;0.003430583935705207;6.399011230468749
662;1555651374;-0.013709112920568546;6.3443603515625
663;1555651375;0.0004212222227720414;6.323242187499999
664;1555651376;5.729688161992257e-05;6.318725585937499
665;1555651377;0.011638551552525177;6.281555175781249
666;1555651378;0.003479892012562794;6.274414062499999
667;1555651379;-0.0007084016083350769;6.252197265624999
668;1555651380;-0.008979179545145835;6.2348876953125
669;1555651381;-0.015951143486860216;6.213037109375
670;1555651382;0.0022173504124740413;6.164916992187499
671;1555651383;0.0021562533902766755;6.135144042968749
672;1555651384;-0.0019949550866301792;6.0974609375
673;1555651385;-2.9117775121155648e-05;6.079101562499999
674;1555651386;0.00014377670285325295;6.079101562499999
675;1555651387;0.002606618207242427;6.067626953124999
676;1555651388;-0.0011833653168952882;6.0580810546874995
677;1555651389;-0.000644238912198013;6.140429687499999
678;1555651390;0.0022291446693475884;6.20770263671875
679;1555651391;-0.0014024335854859128;6.124755859374999
680;1555651392;0.006986138663854604;6.053210449218749
681;1555651393;-0.0004984778976581635;6.048034667968749
682;1555651394;0.006382786615710449;6.030273437499999
683;1555651395;-0.006620475828556063;6.007592773437499
684;1555651396;-0.0007055432635217851;5.9814453125
685;1555651397;0.002555397420455254;5.9791748046875
686;1555651398;0.012752164674942912;5.95806884765625
687;1555651399;-0.0032332766577015857;5.933679199218749
688;1555651400;0.0009638741090777403;5.941955566406249
689;1555651401;-0.014396406717377878;5.9346069335937495
690;1555651402;-0.0055428381647787215;5.901367187499999
691;1555651403;0.0007115975956585772;5.94193115234375
692;1555651404;-0.003262874694669024;6.092968749999999
693;1555651405;0.003662589193309598;6.170190429687499
694;1555651406;0.002772897708951415;6.156005859374999
695;1555651407;0.0009449290919169613;6.335717773437499
696;1555651408;-0.0016992123220900624;6.46873779296875
697;1555651409;0.008166563487933407;6.48826904296875
698;1555651410;-0.0032109635913275974;6.505737304687499
699;1555651411;0.00015035196880876976;6.469628906249999
700;1555651412;0.007264463497184347;6.423718261718749
701;1555651413;-0.010094239204773939;6.381091308593749
702;1555651414;-0.004016728054216584;6.3314453125
703;1555651415;-0.003182072924859565;6.319030761718749
704;1555651416;0.0031644264148430116;6.361962890625
705;1555651417;0.0007007955451334572;6.3240234375
706;1555651418;0.0014140977313235293;6.32763671875
707;1555651419;0.005031913420515879;6.2115234375
708;1555651420;0.012465605620831464;6.2060913085937495
709;1555651421;-0.013451725219404468;6.21776123046875
710;1555651422;0.00247661681288566;6.205261230468749
711;1555651423;-0.0024797862530958185;6.21959228515625
712;1555651424;0.00538487454662315;6.181408691406249
713;1555651425;0.009476931391041294;6.11387939453125
714;1555651426;-0.0009692781209922263;6.13536376953125
715;1555651427;-0.020904169696389186;6.1208251953125
716;1555651428;0.003621332938451128;6.193261718749999
717;1555651429;-0.0038918046997489515;6.176757812499999
718;1555651430;0.007733021261963006;6.21402587890625
719;1555651431;-0.0030829972869649536;6.37349853515625
720;1555651432;-0.0009976338013038568;6.55340576171875
721;1555651433;-0.0010525418103451973;6.645190429687499
722;1555651434;1.5039842177775844e-05;6.673266601562499
723;1555651435;-0.00100481755283994;6.60347900390625
724;1555651436;0.0058108823591541845;6.5852294921875
725;1555651437;0.002358580014531262;6.561279296874999
726;1555651438;-0.0027508737324218402;6.538049316406249
727;1555651439;0.005971358914114898;6.504772949218749
728;1555651440;-0.003431403677702471;6.46009521484375
729;1555651441;-0.005752121645103202;6.425317382812499
730;1555651442;-0.004125142978218605;6.554284667968749
731;1555651443;0.009549162531171785;6.976245117187499
732;1555651444;-0.006534861860929929;7.37135009765625
733;1555651445;0.0042873930677449126;7.374340820312499
734;1555651446;0.0010852130809389429;7.3523193359375
735;1555651447;0.0011305099154629045;7.32957763671875
736;1555651448;-0.0015697164288570478;7.30697021484375
737;1555651449;-0.000347827721115451;7.281445312499999
738;1555651450;-0.0046580242207335445;7.229443359374999
739;1555651451;-0.000256376856075741;7.2021484375
740;1555651452;-0.0008486022865374868;7.20892333984375
741;1555651453;-0.0016281130542584348;7.250573730468749
742;1555651454;0.0002787899941989218;7.258544921874999
743;1555651455;-0.0005692937742527517;7.235363769531249
744;1555651456;0.0008447032996202083;7.20345458984375
745;1555651457;0.001021328771506735;7.2021484375
746;1555651458;0.0018574670932509129;7.15638427734375
747;1555651459;0.0009299639938214843;7.128015136718749
748;1555651460;0.003363059841547474;7.102868652343749
749;1555651461;0.0008789557204641136;7.0420166015625
750;1555651462;0.003994497794065213;7.050048828125
751;1555651463;0.008578836457219458;6.984484863281249
752;1555651464;-0.008179166557140512;6.906237792968749
753;1555651465;-0.0059120536261101616;6.851123046875
754;1555651466;0.000615551801407336;6.80238037109375
755;1555651467;-0.0005684821447673974;6.747729492187499
756;1555651468;0.0014812896409983596;6.67236328125
757;1555651469;-0.0010792094403447832;6.57515869140625
758;1555651470;0.004522461363566152;6.4499267578125
759;1555651471;0.006312557229872698;6.338635253906249
760;1555651472;-0.007461115716381753;6.2204833984375
761;1555651473;-0.0022027252516808515;6.18223876953125
762;1555651474;0.0004734024237982427;6.07218017578125
763;1555651475;0.00821908526600502;6.0782470703125
764;1555651476;-0.0035250058009014466;6.21168212890625
765;1555651477;-0.0028558024037086626;6.2432006835937495
766;1555651478;0.008160203250284825;6.16749267578125
767;1555651479;-0.006929196372471123;6.0876708984375
768;1555651480;-0.00043523078153149413;5.99130859375
769;1555651481;-0.011445615413430223;5.923095703124999
770;1555651482;-0.0005668106070138794;5.8234619140625
771;1555651483;-0.00037785840912217387;5.72236328125
772;1555651484;0.0008385751632239584;5.6464599609374995
773;1555651485;-0.0007852681520220508;5.56024169921875
774;1555651486;0.00021879808557357828;5.4772705078125
775;1555651487;-0.0005047886099239752;5.4326171875
776;1555651488;0.002409627921007088;5.34454345703125
777;1555651489;0.0010339866589612321;5.281372070312499
778;1555651490;0.0035071277108077873;5.40413818359375
779;1555651491;0.0068699625405104405;5.504931640625
780;1555651492;-0.0019364008762577786;5.44359130859375
781;1555651493;-0.0015685416039329888;5.362353515625
782;1555651494;-0.00028005394376034434;5.26951904296875
783;1555651495;-0.0008188492392701447;5.181494140625
784;1555651496;0.0011180868932952402;5.1215087890625
785;1555651497;-0.000516753046524071;5.05938720703125
786;1555651498;-0.0002481006320261518;5.053710937499999
787;1555651499;0.013041628366749153;5.02254638671875
788;1555651500;-0.009333079290191665;4.96192626953125
789;1555651501;-0.0061800170118644785;4.95469970703125
790;1555651502;-0.006866778039875461;4.88258056640625
791;1555651503;0.0038590567678980633;4.786474609375
792;1555651504;0.004400786488414129;4.70213623046875
793;1555651505;0.01127648250348103;4.6368896484375
794;1555651506;-0.018596191644468116;4.61627197265625
795;1555651507;0.008076085373357458;4.82047119140625
796;1555651508;0.009156231987510704;5.08192138671875
797;1555651509;-0.010352193383246966;5.152490234375
798;1555651510;-4.549090577880399e-05;5.19010009765625
799;1555651511;-0.0029988736479529777;5.152001953125
800;1555651512;-0.0035764782256696498;5.0511962890625
801;1555651513;0.0004247148749282496;4.91363525390625
802;1555651514;-0.0019335726965086435;4.839379882812499
803;1555651515;0.00016080742824960885;4.766796875
804;1555651516;0.0008923549245215162;4.74942626953125
805;1555651517;0.002533112086132599;4.69364013671875
806;1555651518;0.00037599790672709704;4.6340576171875
807;1555651519;-0.0020160178450841153;4.5576904296875
808;1555651520;0.002127415065770769;4.500927734375
809;1555651521;0.0007692526282000981;4.45772705078125
810;1555651522;0.00165261075473843;4.41102294921875
811;1555651523;0.003354866208183405;4.36226806640625
812;1555651524;-0.003477737996558843;4.30068359375
813;1555651525;0.0015922746079191305;4.24874267578125
814;1555651526;-0.0009773576872202483;4.19239501953125
815;1555651527;0.003465874293583972;4.14417724609375
816;1555651528;0.011502953270320974;4.10303955078125
817;1555651529;-0.007810348440588821;4.073779296875
818;1555651530;0.002137879606182075;4.06376953125
819;1555651531;-0.008268758024701443;3.9956909179687496
820;1555651532;0.0007669863900400389;3.94920654296875
821;1555651533;0.0003051405609384423;3.90994873046875
822;1555651534;0.0056204943681739845;3.86929931640625
823;1555651535;-0.0021759345923170613;3.831396484375
824;1555651536;-0.0009042610643919432;3.81365966796875
825;1555651537;0.011062764046568684;3.7461669921875
826;1555651538;0.00053323475858134;3.681640625
827;1555651539;-0.0015168050964243665;3.62437744140625
828;1555651540;-0.018893929073751575;3.57994384765625
829;1555651541;-0.0015760832845963934;3.59715576171875
830;1555651542;-4.159692476080073e-05;3.9762939453125
831;1555651543;-0.0015765416624509941;4.43258056640625
832;1555651544;0.0010852340543506642;4.643798828125
833;1555651545;0.001895823724805954;4.6890625
834;1555651546;0.010290903911820729;4.74652099609375
835;1555651547;0.00010725236691910786;4.77064208984375
836;1555651548;0.0028773203148528;4.77022705078125
837;1555651549;-0.0046643691894373155;4.78375244140625
838;1555651550;0.011604958497222735;4.764453125
839;1555651551;-0.002844955261809875;4.7431640625
840;1555651552;-0.0018691580226073712;4.70955810546875
841;1555651553;-0.01610674980869638;4.6525634765625
842;1555651554;-0.0008858525096207424;4.6106201171875
843;1555651555;0.004427165348645388;4.579150390625
844;1555651556;0.002688307340351398;4.5246826171875
845;1555651557;-0.006343516489705526;4.48582763671875
846;1555651558;-0.0008420640102386174;4.44432373046875
847;1555651559;0.005570540587411325;4.4406494140625
848;1555651560;0.001923898457129235;4.416455078125
849;1555651561;-0.006639290784755424;4.39951171875
850;1555651562;-0.000972879892180823;4.4112548828125
851;1555651563;0.0008586514958643266;4.4031982421875
852;1555651564;0.004745342842625634;4.40184326171875
853;1555651565;-0.00043464669934594467;4.3338134765625
854;1555651566;0.006313496127503638;4.226220703125
855;1555651567;-0.010605864661942913;4.26207275390625
856;1555651568;0.011285290860933953;4.25306396484375
857;1555651569;-0.004505053097458466;4.21121826171875
858;1555651570;-0.00190289677681158;4.1931396484375
859;1555651571;0.006706676964737271;4.16279296875
860;1555651572;-0.00215944276467687;4.143664550781249
861;1555651573;-0.009277262887344066;4.61531982421875
862;1555651574;0.005338392903285754;5.65887451171875
863;1555651575;-0.0019743996374143188;6.52620849609375
864;1555651576;-0.0023733517702278226;6.6888793945312495
865;1555651577;-0.0005421326431971546;6.695800781249999
866;1555651578;0.0011314600486902527;6.654064941406249
867;1555651579;-0.0007387638941811155;6.640624999999999
868;1555651580;0.0009506012333199162;6.620910644531249
869;1555651581;0.002469188304137355;6.60350341796875
870;1555651582;0.0005699074903101537;6.55528564453125
871;1555651583;0.001713350399490123;6.486083984375
872;1555651584;0.010003135112145338;6.46181640625
873;1555651585;0.0004531218046332367;6.4513916015625
874;1555651586;-0.011393015345519899;6.405517578124999
875;1555651587;-0.0005191107384958863;6.4173950195312495
876;1555651588;0.0012166813500662343;6.4358886718749995
877;1555651589;0.013092578386179292;6.4697265625
878;1555651590;-0.012036158481167776;6.46201171875
879;1555651591;0.0017755496310860655;6.46654052734375
880;1555651592;-0.002159037756934935;6.4697265625
881;1555651593;0.008124250385428246;6.478466796875
882;1555651594;-6.8177820744012575e-06;6.498278808593749
883;1555651595;-0.008022761101148253;6.48177490234375
884;1555651596;0.00813568150886848;6.42982177734375
885;1555651597;-0.007645895489615072;6.32958984375
886;1555651598;0.0007421740698198745;6.24156494140625
887;1555651599;0.0007248322470944385;6.150231933593749
888;1555651600;-0.001969890776970274;6.2609130859375
889;1555651601;0.001003023702886623;6.242919921874999
890;1555651602;0.0067838458178653615;6.12071533203125
891;1555651603;-0.0153342200580272;6.0242065429687495
892;1555651604;-0.0011462148553644442;5.912939453125
893;1555651605;0.0043543114880001;5.832568359375
894;1555651606;-0.0009253660229832578;6.344311523437499
895;1555651607;0.004135263977854205;7.2410400390625
896;1555651608;0.003033556778134457;7.58944091796875
897;1555651609;-0.0042394333914974585;7.71939697265625
898;1555651610;-0.0026770870829969542;7.64627685546875
899;1555651611;-0.0015480221063313958;7.573681640625
900;1555651612;0.001113190538204945;7.531677246093749
901;1555651613;-0.0002914699287695513;7.519531249999999
902;1555651614;-0.0022711195520640696;7.519531249999999
903;1555651615;1.7199731697503953e-05;7.500781249999999
904;1555651616;0.0025494653843862163;7.4794067382812495
905;1555651617;-0.001546499327147583;7.4823974609374995
906;1555651618;0.0005473913808382915;7.46024169921875
907;1555651619;0.0034911238383635093;7.446484375
908;1555651620;0.003799223072390337;7.480175781249999
909;1555651621;-0.0029874400099094037;7.470703124999999
910;1555651622;0.0026200419059752827;7.45006103515625
911;1555651623;-0.008241639749836544;7.44833984375
912;1555651624;0.0015284500702170628;7.501416015624999
913;1555651625;0.0005004362284189962;7.5268920898437495
914;1555651626;-0.0015779213571174826;7.58492431640625
915;1555651627;0.002222681572666323;7.8509765625
916;1555651628;0.003938854232321286;7.90491943359375
917;1555651629;-0.008053141845162204;7.849731445312499
918;1555651630;0.011912611449919851;7.80860595703125
919;1555651631;0.005713744670477335;7.8076904296875
920;1555651632;-0.015331774833451592;7.79515380859375
921;1555651633;0.003314415060279301;7.81348876953125
922;1555651634;-0.0035347254235509147;7.8042236328125
923;1555651635;0.0031032353817457615;7.78052978515625
924;1555651636;-0.006457058452019135;7.774853515625
925;1555651637;0.0012753903025179516;7.7402099609374995
926;1555651638;0.0021997868301532847;7.7198242187499995
927;1555651639;0.0016667168752654122;7.710559082031249
928;1555651640;0.0007086471573875466;7.677880859375
929;1555651641;0.008650254817640628;7.64935302734375
930;1555651642;-0.006293430278788507;7.622766113281249
931;1555651643;0.000779307109405377;7.592248535156249
932;1555651644;-0.0026333813418102244;7.56448974609375
933;1555651645;-0.0021937829801600846;7.533752441406249
934;1555651646;-0.0015438321509776715;7.517053222656249
935;1555651647;0.0006526029952830093;7.494934082031249
936;1555651648;-0.001791708007239752;7.461010742187499
937;1555651649;-0.0009354107837571066;7.43509521484375
938;1555651650;0.0020142116662262175;7.409374999999999
939;1555651651;0.0009993487633312172;7.385009765624999
940;1555651652;0.001082119638154582;7.3470214843749995
941;1555651653;0.0004679258138471676;7.3331298828125
942;1555651654;0.0062564592784857065;7.3190673828125
943;1555651655;-0.003496908330564923;7.2716552734375
944;1555651656;1.0715709328565679e-05;7.264489746093749
945;1555651657;-0.0012553371980246314;7.219750976562499
946;1555651658;0.0028402395700413683;7.19775390625
947;1555651659;-0.004991375920294439;7.163623046874999
948;1555651660;0.0031452300296050174;7.152062988281249
949;1555651661;0.0023381141633354975;7.3800537109375
950;1555651662;0.0025468702333687416;7.7159912109375
951;1555651663;-0.00209099215414639;8.0436767578125
952;1555651664;-0.001125293537862665;8.105468749999998
953;1555651665;0.0033025974011302813;8.0836181640625
954;1555651666;-0.004755881577515536;8.055419921875
955;1555651667;-0.0023400188628631582;8.01546630859375
956;1555651668;0.004367329827934239;8.01131591796875
957;1555651669;0.007071798553703805;8.04605712890625
958;1555651670;-0.012876898832515396;8.07357177734375
959;1555651671;-0.002961863701487374;8.1601806640625
960;1555651672;0.002962570701566213;8.36827392578125
961;1555651673;-0.001723828127246364;8.34324951171875
962;1555651674;-3.1780998678088906e-05;8.285986328125
963;1555651675;0.011268937649849447;8.24752197265625
964;1555651676;0.009258325775517409;8.21087646484375
965;1555651677;-0.021158612046215337;8.415869140625
966;1555651678;0.009641988481390838;8.56187744140625
967;1555651679;-0.0037831521688128098;8.17017822265625
968;1555651680;-0.004080855263800342;8.1831787109375
969;1555651681;-0.001002290489142091;8.234936523437499
970;1555651682;0.0026256974386229892;8.227539062499998
971;1555651683;-0.003205850245620897;8.228076171874998
972;1555651684;0.007472419640505734;8.22347412109375
973;1555651685;0.0011595755399970492;8.201220703125
974;1555651686;-0.0015917585517063084;8.17318115234375
975;1555651687;0.0020501106731106895;8.14345703125
976;1555651688;-0.000302916045481928;8.111059570312499
977;1555651689;0.0062337933450989785;8.105468749999998
978;1555651690;0.0009141687138215904;8.08331298828125
979;1555651691;-0.004785289168971454;8.0468017578125
980;1555651692;-0.0033729501860139694;8.00921630859375
981;1555651693;-0.00017604571069043662;7.983398437499999
982;1555651694;-0.0022137476656945276;8.002136230468748
983;1555651695;0.003270022754120696;8.2953125
984;1555651696;-0.004407622172815866;8.50712890625
985;1555651697;0.003121879766677962;8.65657958984375
986;1555651698;-0.005416606382063089;8.60472412109375
987;1555651699;0.00904453392216652;8.5417236328125
988;1555651700;0.011384545469336588;8.49423828125
989;1555651701;-0.017692808304580063;8.45496826171875
990;1555651702;0.012770394709452633;8.41109619140625
991;1555651703;-0.004228647175373694;8.39302978515625
992;1555651704;-0.002114778355725345;8.3924560546875
993;1555651705;0.0036354358783750535;8.3921630859375
994;1555651706;-0.005733654728965193;8.360534667968748
995;1555651707;-0.007245088170601805;8.32666015625
996;1555651708;-7.269067890964496e-05;8.3067626953125
997;1555651709;0.015672224300131266;8.2791259765625
998;1555651710;-0.008139145173318381;8.26773681640625
999;1555651711;-0.00671000574010383;8.234045410156249
1000;1555651712;0.0012807010921134202;8.2185302734375
1001;1555651713;0.0030359654931030326;8.31690673828125
1002;1555651714;0.0006586881422666395;8.369494628906248
1003;1555651715;-0.006236998221182223;8.36199951171875
1004;1555651716;0.004998276121547275;8.550927734375
1005;1555651717;-0.004962129867932984;8.63870849609375
1006;1555651718;6.33740354688134e-05;8.595458984375
1007;1555651719;0.0028872198606855115;8.5693359375
1008;1555651720;-0.0010670102106059075;8.56243896484375
1009;1555651721;-0.0003724052110335982;8.53912353515625
1010;1555651722;0.00573526115492413;8.525244140625
1011;1555651723;-0.002281487750979576;8.58634033203125
1012;1555651724;0.0035797411027279472;8.68724365234375
1013;1555651725;-0.004397911139353925;8.66083984375
1014;1555651726;0.0052180328559567266;8.57783203125
1015;1555651727;-0.0003287814520590028;8.53115234375
1016;1555651728;0.005552852341196001;8.496044921875
1017;1555651729;-0.010049800772450577;8.469287109375
1018;1555651730;0.004895100416936971;8.43944091796875
1019;1555651731;-0.005066273331183754;8.4228515625
1020;1555651732;-0.0011244831535859282;8.4055908203125
1021;1555651733;0.0007127525246165618;8.392724609375
1022;1555651734;0.004406423163396284;8.367553710937498
1023;1555651735;0.012966455444078496;8.349609374999998
1024;1555651736;-0.01568797442258609;8.42880859375
1025;1555651737;0.003889679221209712;8.5106201171875
1026;1555651738;0.00010027896434555414;8.495080566406248
1027;1555651739;-0.005241610075859343;8.471679687499998
1028;1555651740;-0.0023208897705256316;8.471679687499998
1029;1555651741;0.003818084640015264;8.46759033203125
1030;1555651742;-0.0025883905993571614;8.431103515625
1031;1555651743;0.003608034092376623;8.40748291015625
1032;1555651744;-0.0017340051811600243;8.38824462890625
1033;1555651745;-0.00010366001147359266;8.362194824218749
1034;1555651746;0.005425025025785151;8.3411376953125
1035;1555651747;-0.003048370956002283;8.3234375
1036;1555651748;-1.590942656927093e-05;8.37877197265625
1037;1555651749;0.015374395950951504;8.4431396484375
1038;1555651750;-0.01492260592896013;8.52705078125
1039;1555651751;-0.0006326675185842606;8.70037841796875
1040;1555651752;0.0037396535177698794;8.77821044921875
1041;1555651753;0.009861133537132149;8.72310791015625
1042;1555651754;-0.014577564811027099;8.7871337890625
1043;1555651755;-0.007676293360521549;8.88671875
1044;1555651756;0.0016099715917528453;8.86959228515625
1045;1555651757;-0.0011084257606527948;8.90980224609375
1046;1555651758;0.00021712793440218812;8.91256103515625
1047;1555651759;0.0011819104612944777;8.87950439453125
1048;1555651760;0.0011171602439839752;8.81712646484375
1049;1555651761;0.0057579636533626475;8.769580078125
1050;1555651762;-0.0008185918082778274;8.7646484375
1051;1555651763;0.00554393214281633;8.781787109375
1052;1555651764;0.00023081303705323094;8.782666015625
1053;1555651765;-0.0060541235684549236;8.75030517578125
1054;1555651766;0.0011559306046197962;8.727258300781248
1055;1555651767;-0.0008070926965037096;8.68975830078125
1056;1555651768;0.008399335637510847;8.6669921875
1057;1555651769;0.0037317228904010058;8.64346923828125
1058;1555651770;0.001094930742326403;8.614221191406248
1059;1555651771;-0.021833460684152848;8.604467773437499
1060;1555651772;0.0027648745003734814;8.59732666015625
1061;1555651773;-0.0024139894780076878;8.5693359375
1062;1555651774;0.0036400520932928387;8.56929931640625
1063;1555651775;0.015841555527670838;8.5443359375
1064;1555651776;-0.012135879033535166;8.43536376953125
1065;1555651777;-0.0012821122522729662;8.41434326171875
1066;1555651778;0.0027826522677700917;8.421875
1067;1555651779;0.013027407888783616;8.39464111328125
1068;1555651780;-0.017216997553152903;8.365270996093749
1069;1555651781;-0.0016883408232108417;8.382507324218748
1070;1555651782;0.011933217028918058;8.63385009765625
1071;1555651783;-0.006272103282026725;8.7632080078125
1072;1555651784;0.007327440642030143;8.71431884765625
1073;1555651785;0.0027299692439733724;8.66878662109375
1074;1555651786;0.0008059821158940002;8.62442626953125
1075;1555651787;-0.00022770532675318023;8.600646972656248
1076;1555651788;-0.014925695300868557;8.593749999999998
1077;1555651789;-0.004149712567907275;8.58350830078125
1078;1555651790;0.0032343594247941547;8.56611328125
1079;1555651791;0.002280988284598774;8.54359130859375
1080;1555651792;0.015462086620699544;8.5150390625
1081;1555651793;-0.01341847640666282;8.494458007812499
1082;1555651794;0.0024540033473307806;8.471679687499998
1083;1555651795;0.0012221649718263147;8.44930419921875
1084;1555651796;0.000530782291326715;8.42913818359375
1085;1555651797;0.00885639028527863;8.40625
1086;1555651798;-0.013193401285697268;8.39097900390625
1087;1555651799;0.005318541156428208;8.3836669921875
1088;1555651800;-0.006552679998283387;8.40723876953125
1089;1555651801;0.004202188227936857;8.3984375
1090;1555651802;-0.0038412090164062084;8.46700439453125
1091;1555651803;0.003785488469748192;8.62391357421875
1092;1555651804;0.00035281873598184597;8.662255859375
1093;1555651805;0.006406839573145095;8.61065673828125
1094;1555651806;-0.010337990716797286;8.629821777343748
1095;1555651807;0.0022216163659401875;8.75455322265625
1096;1555651808;0.004943942409208334;8.75338134765625
1097;1555651809;-0.00863898101788162;8.7095947265625
1098;1555651810;0.010676370802794283;8.670751953125
1099;1555651811;0.0052907556967521805;8.68358154296875
1100;1555651812;-0.01399561207740086;8.85010986328125
1101;1555651813;0.01469789093511595;8.87850341796875
1102;1555651814;-0.01628838915782863;8.81568603515625
1103;1555651815;0.0005502804537155786;8.77191162109375
1104;1555651816;0.012444314628646029;8.77320556640625
1105;1555651817;-0.003861826233312006;8.7780517578125
1106;1555651818;-0.004645999156886858;8.743603515625
1107;1555651819;0.000284357630549512;8.6993408203125
1108;1555651820;-0.005435771172569378;8.72249755859375
1109;1555651821;-0.0020703008105382456;8.8957275390625
1110;1555651822;-0.0009402074355165926;8.87093505859375
1111;1555651823;0.0007622765308267856;8.791845703125
1112;1555651824;-0.0003011342872901543;8.75535888671875
1113;1555651825;-0.0022359644481760267;8.7206787109375
1114;1555651826;0.0031224377673827494;8.69041748046875
1115;1555651827;-0.0031549643771847467;8.6669921875
1116;1555651828;-0.0006864047830744738;8.6349365234375
1117;1555651829;0.0023514530160224953;8.58289794921875
1118;1555651830;0.0010438327767062815;8.56790771484375
1119;1555651831;0.000969521791033726;8.54324951171875
1120;1555651832;-0.0023981052077642253;8.51864013671875
1121;1555651833;0.0004458132900832314;8.496093749999998
1122;1555651834;-0.0008168543661633108;8.482873535156248
1123;1555651835;0.00029278462105735163;8.4527587890625
1124;1555651836;-0.00017866015879228718;8.4228515625
1125;1555651837;-0.0010139147562198939;8.40279541015625
1126;1555651838;-0.0004012231242848069;8.3792236328125
1127;1555651839;0.0010686135650033687;8.398315429687498
1128;1555651840;-0.0016348656098236316;8.58370361328125
1129;1555651841;0.001258647494381432;8.6669677734375
1130;1555651842;0.000878143003985224;8.6323974609375
1131;1555651843;0.00034219084444879906;8.599084472656248
1132;1555651844;-0.0007573716594843792;8.56024169921875
1133;1555651845;0.004400838307186421;8.5390625
1134;1555651846;-0.0021312642765680635;8.5205078125
1135;1555651847;0.004231194677071552;8.50244140625
1136;1555651848;-0.0043744635820169;8.489611816406248
1137;1555651849;0.009032251308503008;8.44759521484375
1138;1555651850;-0.0011556492036149707;8.41639404296875
1139;1555651851;-0.006799528830312548;8.40667724609375
1140;1555651852;-0.003654397453293511;8.4152099609375
1141;1555651853;0.008006774317481704;8.3984375
1142;1555651854;-0.0003298725826718989;8.38109130859375
1143;1555651855;0.0010217700521138052;8.374023437499998
1144;1555651856;0.003240980966293957;8.369238281249999
1145;1555651857;-0.003892812182185232;8.349609374999998
1146;1555651858;0.0009795190223686589;8.3399169921875
1147;1555651859;0.0021039132604212863;8.30201416015625
1148;1555651860;0.0003767049025766918;8.2763671875
1149;1555651861;-0.004040763299892602;8.3113525390625
1150;1555651862;0.0063747551527029885;8.349609374999998
1151;1555651863;-0.004114058262958462;8.3311279296875
1152;1555651864;0.012084569131693831;8.2907470703125
1153;1555651865;-0.016455778352227547;8.27303466796875
1154;1555651866;0.004909501250353217;8.248425292968749
1155;1555651867;0.010249193631953287;8.2175537109375
1156;1555651868;-0.01312064756863026;8.1822509765625
1157;1555651869;0.002640621435710807;8.1995361328125
1158;1555651870;0.0033738109818151657;8.28226318359375
1159;1555651871;-0.01091222758534107;8.27862548828125
1160;1555651872;0.003975689845213793;8.25233154296875
1161;1555651873;0.004148750366606675;8.240429687499999
1162;1555651874;-0.007533657530509344;8.202978515625
1163;1555651875;0.0088558920770828;8.16937255859375
1164;1555651876;0.0034454426422419757;8.13431396484375
1165;1555651877;-0.015069655704358491;8.105468749999998
1166;1555651878;-0.0003444598645432479;8.08138427734375
1167;1555651879;0.0005657727793331611;8.0434326171875
1168;1555651880;0.008251214679433025;8.0322265625
1169;1555651881;-0.004494741071244176;8.0398681640625
1170;1555651882;0.003605172909273026;8.09810791015625
1171;1555651883;0.011398643773223634;8.083544921875
1172;1555651884;-0.018300080637839052;8.09510498046875
1173;1555651885;0.011859378876391817;8.20472412109375
1174;1555651886;-0.006924571449976699;8.21878662109375
1175;1555651887;0.0027266179095749646;8.1923095703125
1176;1555651888;-0.007229347173075999;8.203125
1177;1555651889;0.006537519715638458;8.203125
1178;1555651890;-0.004394694058154893;8.173095703125
1179;1555651891;-0.0009280114958490078;8.14974365234375
1180;1555651892;-0.00019166161510486261;8.1200439453125
1181;1555651893;-0.0019334312990986144;8.123608398437499
1182;1555651894;0.0009003927577349755;8.17802734375
1183;1555651895;-0.0022052823501716597;8.21138916015625
1184;1555651896;0.002710095980089994;8.38218994140625
1185;1555651897;0.003276819854847393;8.4032470703125
1186;1555651898;0.005124184086552839;8.3984375
1187;1555651899;-0.005680917623460547;8.35723876953125
1188;1555651900;0.004133213444772549;8.30224609375
1189;1555651901;0.003049316963102539;8.30078125
1190;1555651902;0.006889757386426997;8.2821533203125
1191;1555651903;-0.007861862648882178;8.26578369140625
1192;1555651904;-0.005233851251997859;8.241247558593749
1193;1555651905;0.0019059934227797489;8.198388671875
1194;1555651906;-0.001669875331537115;8.17454833984375
1195;1555651907;-0.003535924684153206;8.1525390625
1196;1555651908;-0.0006718679364432549;8.116638183593748
1197;1555651909;0.001110879618284441;8.100476074218749
1198;1555651910;-0.0008734695447381541;8.07110595703125
1199;1555651911;-0.001951256012071052;8.03587646484375
1200;1555651912;0.0014607640659912496;8.03131103515625
1201;1555651913;-0.002182046177871973;7.999816894531249
1202;1555651914;0.001215877590940089;7.983398437499999
1203;1555651915;0.001026888826313366;7.972705078124999
1204;1555651916;-0.002204427341493039;7.9258056640625
1205;1555651917;0.0003336176152613839;7.89205322265625
1206;1555651918;0.000450390413709311;7.8682006835937495
1207;1555651919;0.0002671605571612092;7.861328124999999
1208;1555651920;0.01575030864820819;7.8425048828124995
1209;1555651921;0.003203086274206156;7.95087890625
1210;1555651922;-0.012808936158369321;8.347998046875
1211;1555651923;0.0052592899940135775;8.57725830078125
1212;1555651924;-0.004415385341249262;8.557421875
1213;1555651925;0.00038337125916471836;8.51668701171875
1214;1555651926;0.009245269033817356;8.489843749999999
1215;1555651927;-0.004374144135489739;8.46224365234375
1216;1555651928;-0.005222376761270821;8.43465576171875
1217;1555651929;0.0005870618361591782;8.4232177734375
1218;1555651930;0.0007075022955685359;8.4258056640625
1219;1555651931;-0.002061106973236127;8.4509765625
1220;1555651932;-0.003435395271210857;8.500830078125
1221;1555651933;0.006297554718011454;8.64852294921875
1222;1555651934;-0.0015881475214932733;8.67303466796875
1223;1555651935;0.0006977744329766218;8.66033935546875
1224;1555651936;0.0038119120810883164;8.6065185546875
1225;1555651937;-0.012121189923761266;8.5448974609375
1226;1555651938;0.002240112874107506;8.55069580078125
1227;1555651939;-0.0014330647624362337;8.53343505859375
1228;1555651940;0.02187940320755525;8.50028076171875
1229;1555651941;-0.017704119258784425;8.49837646484375
1230;1555651942;-0.000277368199695075;8.6029296875
1231;1555651943;0.0035523106471284406;8.66217041015625
1232;1555651944;0.0013379503030859425;8.611376953125
1233;1555651945;0.009247563899719436;8.58121337890625
1234;1555651946;-0.00971258870226658;8.556787109375
1235;1555651947;0.0025759273907971004;8.5271484375
1236;1555651948;0.0061485345840475636;8.5205078125
1237;1555651949;0.0031294526550088705;8.50091552734375
1238;1555651950;-0.020327300395950907;8.496093749999998
1239;1555651951;0.0011711091270847995;8.475537109374999
1240;1555651952;0.00018094302824444582;8.456591796875
1241;1555651953;-0.0009245172814745452;8.4247314453125
1242;1555651954;-1.2063742225969936e-05;8.3984375
1243;1555651955;0.0062687073910510675;8.39166259765625
1244;1555651956;-0.0042022905302594995;8.356848144531249
1245;1555651957;0.0017607774683990813;8.3282470703125
1246;1555651958;-0.0024215884626004576;8.3461181640625
1247;1555651959;-0.0001446546059403313;8.374023437499998
1248;1555651960;-0.0020095603829390096;8.354187011718748
1249;1555651961;0.0007829419870461251;8.333349609375
1250;1555651962;0.00029643602098182003;8.33516845703125
1251;1555651963;-0.002352614010669591;8.4404296875
1252;1555651964;0.0034565481228170654;8.64967041015625
1253;1555651965;-0.0005155807940184386;8.85543212890625
1254;1555651966;-0.00014235791684188162;8.9290771484375
1255;1555651967;0.0030120313733965226;8.886767578125
1256;1555651968;-0.0010708103294342379;8.831787109375
1257;1555651969;-0.001362480314573695;8.79970703125
1258;1555651970;0.004678406640450822;8.7653564453125
1259;1555651971;-0.006145813584153776;8.8206787109375
1260;1555651972;0.016303143971851917;8.96995849609375
1261;1555651973;-0.01043619999565106;8.92864990234375
1262;1555651974;-0.0029778922259029424;8.8632568359375
1263;1555651975;0.00037372602469135265;8.8270751953125
1264;1555651976;-0.003498293690360875;8.7985107421875
1265;1555651977;0.0015394272339136785;8.77723388671875
1266;1555651978;-0.0012382870732976273;8.8126220703125
1267;1555651979;0.003195755992638767;8.806689453125
1268;1555651980;0.0014753090169994632;8.76766357421875
1269;1555651981;0.0034339711095592467;8.82286376953125
1270;1555651982;-0.002684009262416786;8.89678955078125
1271;1555651983;-0.0001508698870398962;8.8595947265625
1272;1555651984;0.010502912291321956;8.8090087890625
1273;1555651985;-0.014890089410424658;8.78492431640625
1274;1555651986;0.0026825175876347986;8.80369873046875
1275;1555651987;0.007679663142344988;8.77177734375
1276;1555651988;-0.00985958846814749;8.7646484375
1277;1555651989;-0.002469751259734744;8.7646484375
1278;1555651990;0.0012061912407502098;8.737890625
1279;1555651991;0.0004271282346980607;8.69892578125
1280;1555651992;0.001598755891825598;8.6717529296875
1281;1555651993;0.00046749220601785486;8.66365966796875
1282;1555651994;0.004224323556173066;8.63797607421875
1283;1555651995;-0.0066920701587635965;8.611401367187499
1284;1555651996;0.004905615801239139;8.593749999999998
1285;1555651997;-0.0023549023286892658;8.593749999999998
1286;1555651998;0.005448800319669693;8.569970703125
1287;1555651999;-0.004424859286867558;8.544921875
1288;1555652000;0.0029244831089097686;8.5569580078125
1289;1555652001;0.010416891228538363;8.6663818359375
1290;1555652002;-0.0054416642415243445;8.69140625
1291;1555652003;-0.004127324299338684;8.83665771484375
1292;1555652004;-0.0011294119654198778;8.971423339843748
1293;1555652005;0.002026517395576355;8.92587890625
1294;1555652006;-0.0020177936192945474;8.884716796875
1295;1555652007;0.009014767310280787;8.83372802734375
1296;1555652008;-0.004920883300104508;8.83597412109375
1297;1555652009;-0.014366638249279168;8.76845703125
1298;1555652010;0.006138975639419316;8.76656494140625
1299;1555652011;-0.0009217962011289217;8.79422607421875
1300;1555652012;0.000662891991738657;8.802294921875
1301;1555652013;-0.0003029790872898925;8.799609375
1302;1555652014;3.631119451889885e-05;8.7650634765625
1303;1555652015;0.007066661037485307;8.7240478515625
1304;1555652016;-0.0017722627367397032;8.66793212890625
1305;1555652017;0.0008001163358772607;8.6669921875
1306;1555652018;0.00336064202276755;8.6669921875
1307;1555652019;-0.0020004756970336108;8.66162109375
1308;1555652020;-0.0047160577482476505;8.84176025390625
1309;1555652021;0.008806801041920304;8.993115234375
1310;1555652022;-0.010018783906988616;9.053369140625
1311;1555652023;0.0020432641414760595;9.00439453125
1312;1555652024;0.010338252242884446;8.92244873046875
1313;1555652025;-0.014377303199754398;8.8622802734375
1314;1555652026;-0.0029127886787139548;8.82626953125
1315;1555652027;0.0066481458236091395;8.822314453125
1316;1555652028;-0.00012016668514273531;8.83341064453125
1317;1555652029;0.003267218075224872;8.8134765625
1318;1555652030;0.003754239701320043;8.7888916015625
1319;1555652031;-0.00760051669584763;8.76365966796875
1320;1555652032;-0.0026308336253475038;8.94407958984375
1321;1555652033;0.0019530521351456987;8.9630126953125
1322;1555652034;-0.006532455749703098;8.921728515625
1323;1555652035;0.01027879851628943;8.901220703125
1324;1555652036;-0.0014914758960118658;8.859191894531248
1325;1555652037;0.014754078110002034;8.815087890625
1326;1555652038;-0.02029025434743857;8.78026123046875
1327;1555652039;-0.0022682964700046393;8.7607177734375
1328;1555652040;0.008690472975517043;8.78516845703125
1329;1555652041;-0.0055801520636251075;8.79378662109375
1330;1555652042;0.011817515802344998;8.76998291015625
1331;1555652043;0.0014819771469992643;8.76483154296875
1332;1555652044;0.002697604573511264;8.7646484375
1333;1555652045;-0.015351539213098502;8.7646484375
1334;1555652046;-0.0020419668932925147;8.714599609375
1335;1555652047;0.013540546566666967;8.73175048828125
1336;1555652048;0.006443363915126805;8.7765625
1337;1555652049;-0.01698315896794345;8.7646484375
1338;1555652050;0.012811687627848522;8.7646484375
1339;1555652051;-0.011162930959417748;8.7458251953125
1340;1555652052;-0.004792402409877643;8.729541015624998
1341;1555652053;0.0052535812513055564;8.69189453125
1342;1555652054;0.00704540784502747;8.6516357421875
1343;1555652055;-0.005430171178359896;8.63719482421875
1344;1555652056;0.0005374051696567545;8.61387939453125
1345;1555652057;-0.0016429006327301095;8.618164062499998
1346;1555652058;0.00010120005233541361;8.618164062499998
1347;1555652059;-0.0027519617750990937;8.603051757812498
1348;1555652060;0.010742365660948612;8.58553466796875
1349;1555652061;-0.006497165317226746;8.5693359375
1350;1555652062;0.01013286262382843;8.573828125
1351;1555652063;-0.015640803257397622;8.59200439453125
1352;1555652064;-0.002761018676511332;8.593749999999998
1353;1555652065;0.0033429873813225;8.593749999999998
1354;1555652066;0.012809779336634151;8.642919921875
1355;1555652067;-0.009525832719724658;8.96080322265625
1356;1555652068;0.0014133553918474167;9.068505859375
1357;1555652069;0.0034034122330379325;9.00550537109375
1358;1555652070;-0.0024228894720354547;8.94932861328125
1359;1555652071;-0.005814195861399717;8.9209716796875
1360;1555652072;0.004361405863615559;9.022412109375
1361;1555652073;-0.005668981312034282;9.08740234375
1362;1555652074;0.009504345518992034;9.0893798828125
1363;1555652075;0.0037147869882340825;9.05657958984375
1364;1555652076;0.005273194448303146;9.0706298828125
1365;1555652077;-0.002693918317790408;8.97708740234375
1366;1555652078;-0.004738932034005986;8.9233642578125
1367;1555652079;0.0025860700880373216;8.88671875
1368;1555652080;-0.01570411900545504;8.9602783203125
1369;1555652081;0.016908771102374907;9.04678955078125
1370;1555652082;-0.007459000877273075;8.99046630859375
1371;1555652083;0.010354993336681065;8.92003173828125
1372;1555652084;-0.011789250683563669;8.88582763671875
1373;1555652085;-0.0007315893294219619;8.862304687499998
1374;1555652086;0.009844777642396602;8.884130859375
1375;1555652087;-0.007579112137875474;8.8853515625
1376;1555652088;0.004798404193570383;8.83245849609375
1377;1555652089;-0.01287004382851499;8.78419189453125
1378;1555652090;-0.000773834310018716;8.7646484375
1379;1555652091;-0.00046964407273787987;8.742431640625
1380;1555652092;0.005519445470235804;8.721008300781248
1381;1555652093;-0.0003135640985968601;8.69969482421875
1382;1555652094;0.0006275308405173753;8.6796142578125
1383;1555652095;0.0021254025724236;8.663623046875
1384;1555652096;0.01315982385244599;8.63460693359375
1385;1555652097;-0.017396066510485444;8.600610351562498
1386;1555652098;-0.0047975472418044195;8.593749999999998
1387;1555652099;0.008659255481939356;8.593749999999998
1388;1555652100;0.011498961598316834;8.600976562499998
1389;1555652101;-0.010114879464850802;8.6299560546875
1390;1555652102;-0.00018385710034707676;8.6244873046875
1391;1555652103;0.00349122244292794;8.588916015625
1392;1555652104;0.0002604329901316268;8.5650146484375
1393;1555652105;-0.012567321799039237;8.5272705078125
1394;1555652106;0.000530888331661889;8.5205078125
1395;1555652107;0.0029423397287764944;8.49857177734375
1396;1555652108;0.006974079735617166;8.45960693359375
1397;1555652109;-0.0016715033440444064;8.43033447265625
1398;1555652110;-0.001651835584944485;8.4071533203125
1399;1555652111;-0.0027084918020533295;8.44171142578125
1400;1555652112;0.0007840124391101358;8.5467529296875
1401;1555652113;0.00573012719956829;8.5781982421875
1402;1555652114;-0.007404402846811986;8.57227783203125
1403;1555652115;-0.004479164844345545;8.5693359375
1404;1555652116;-0.00013338662048862572;8.5693359375
1405;1555652117;0.0007992456879758803;8.519091796875
1406;1555652118;0.008778606425369038;8.485729980468749
1407;1555652119;-0.0029956065834660438;8.47332763671875
1408;1555652120;-0.0005826266190895999;8.496093749999998
1409;1555652121;0.016939146220027932;8.492651367187499
1410;1555652122;-0.021186620686642142;8.4236083984375
1411;1555652123;0.002582765368220202;8.3984375
1412;1555652124;0.0038605633258683224;8.37518310546875
1413;1555652125;0.013740263507417715;8.41024169921875
1414;1555652126;-0.019817929486910944;8.42332763671875
1415;1555652127;9.856240674328301e-05;8.442626953125
1416;1555652128;-8.962902680497734e-05;8.43155517578125
1417;1555652129;0.00751324243941223;8.4505859375
1418;1555652130;0.004018568413172877;8.6235107421875
1419;1555652131;0.010992000135519113;8.69058837890625
1420;1555652132;-0.016253168396856834;8.65267333984375
1421;1555652133;-0.0016617794240868732;8.600671386718748
1422;1555652134;0.013932240284308908;8.57669677734375
1423;1555652135;-0.019257406296470242;8.5693359375
1424;1555652136;0.0022336159941718906;8.55750732421875
1425;1555652137;0.006858188277312129;8.544921875
1426;1555652138;0.0014655432004666655;8.5558349609375
1427;1555652139;-0.00664298063243623;8.51483154296875
1428;1555652140;0.003558162536601254;8.516015625
1429;1555652141;0.010497824290187412;8.479602050781248
1430;1555652142;0.002504796029880524;8.456689453125
1431;1555652143;-0.01492087028435696;8.42662353515625
1432;1555652144;-0.005153982429808418;8.43341064453125
1433;1555652145;-0.0024709940752170832;8.4085205078125
1434;1555652146;0.003743012722559395;8.3769775390625
1435;1555652147;-0.0008655916350207048;8.39031982421875
1436;1555652148;0.006397976068069779;8.374023437499998
1437;1555652149;0.00300989703452564;8.3345947265625
1438;1555652150;-0.003724949871805686;8.2800537109375
1439;1555652151;0.005549486260128642;8.2763671875
1440;1555652152;-0.008842217032308716;8.2624267578125
1441;1555652153;-0.0015111818408090985;8.246752929687498
1442;1555652154;-0.0023708557272636125;8.2188720703125
1443;1555652155;0.009925845072790204;8.18387451171875
1444;1555652156;0.0073317878540472775;8.1787109375
1445;1555652157;-0.007660713318949126;8.16531982421875
1446;1555652158;-0.002284542278766574;8.13582763671875
1447;1555652159;0.0044168301990644395;8.09254150390625
1448;1555652160;0.005842704168663523;8.10631103515625
1449;1555652161;0.005759856375639622;8.1853271484375
1450;1555652162;-0.020829901082423264;8.203125
1451;1555652163;0.002580496863345041;8.1960205078125
1452;1555652164;0.004557565241805036;8.181591796875
1453;1555652165;0.005204820226864439;8.14302978515625
1454;1555652166;-0.017296771917146136;8.107434082031249
1455;1555652167;0.010197012202065025;8.08519287109375
1456;1555652168;0.0012216652681868974;8.098828125
1457;1555652169;-0.0033469349031546567;8.23192138671875
1458;1555652170;0.01357641873753154;8.22200927734375
1459;1555652171;-0.013363132200193435;8.227539062499998
1460;1555652172;-0.003324076584804943;8.228308105468749
1461;1555652173;0.00296950584610098;8.2887939453125
1462;1555652174;0.01978772500542612;8.47972412109375
1463;1555652175;-0.020010280762895606;8.4763916015625
1464;1555652176;-0.002087211788076997;8.41055908203125
1465;1555652177;0.014441056048735102;8.41234130859375
1466;1555652178;-0.0034711342044081907;8.42437744140625
1467;1555652179;-0.011244074597493298;8.3984375
1468;1555652180;0.0006338331435643378;8.3750732421875
1469;1555652181;0.004226305541696051;8.302783203125
1470;1555652182;-0.008051919972134848;8.25970458984375
1471;1555652183;0.02223573477972183;8.286376953125
1472;1555652184;0.0064621356979760744;8.27191162109375
1473;1555652185;-0.025336979050928223;8.3156005859375
1474;1555652186;-0.003818405101236045;8.392675781249999
1475;1555652187;0.0008672029948081233;8.607275390625
1476;1555652188;0.0035324985584504697;8.6439208984375
1477;1555652189;-0.005835583218753544;8.591662597656248
1478;1555652190;0.0011043866888922282;8.52276611328125
1479;1555652191;0.0031905643440289246;8.454833984375
1480;1555652192;0.010976986487810064;8.42911376953125
1481;1555652193;-0.011608191084267281;8.4246826171875
1482;1555652194;0.003966085021758363;8.43865966796875
1483;1555652195;0.0033811402266537443;8.4056396484375
1484;1555652196;-0.005957573627608263;8.3724365234375
1485;1555652197;0.0059125535040455935;8.349609374999998
1486;1555652198;-0.007602969968801218;8.30587158203125
1487;1555652199;0.018683822188091715;8.294775390625
1488;1555652200;0.0002354710738176355;8.3258056640625
1489;1555652201;-0.014569184084377641;8.285205078125
1490;1555652202;0.004578430052665541;8.36881103515625
1491;1555652203;-0.00462104320648724;8.40919189453125
1492;1555652204;0.0080124685372591;8.61983642578125
1493;1555652205;-0.007767750644212673;8.634912109375
1494;1555652206;-0.004596415273465287;8.58447265625
1495;1555652207;0.008450509682502522;8.5767333984375
1496;1555652208;0.01067637631101997;8.55089111328125
1497;1555652209;-0.018280728828550974;8.5361328125
1498;1555652210;0.008441048106695376;8.48939208984375
1499;1555652211;-0.005455517609247701;8.496020507812498
1500;1555652212;0.013051606158620626;8.4357666015625
1501;1555652213;-0.015880438684482374;8.4415771484375
1502;1555652214;0.006521646846215198;8.44735107421875
1503;1555652215;-0.0019167609204106162;8.404443359375
1504;1555652216;0.002687189213236575;8.40064697265625
1505;1555652217;0.00718476148478802;8.415478515625
1506;1555652218;-0.006068631062231786;8.41864013671875
1507;1555652219;0.008717366740688908;8.38997802734375
1508;1555652220;-0.006995325657812158;8.30838623046875
1509;1555652221;-0.010816471770807549;8.1631103515625
1510;1555652222;-0.0029754172300612085;8.20782470703125
1511;1555652223;0.0038013997044031487;8.371875
1512;1555652224;0.008478425105109062;8.40970458984375
1513;1555652225;-0.007488280158730028;8.36890869140625
1514;1555652226;0.0032702153776408083;8.35341796875
1515;1555652227;0.011284750039857693;8.18150634765625
1516;1555652228;-0.015327012023325683;8.07874755859375
1517;1555652229;0.011154734143285461;8.4545166015625
1518;1555652230;-0.007286907419335641;8.45487060546875
1519;1555652231;-0.004862411090262626;8.42196044921875
1520;1555652232;0.0071313120302329055;8.54658203125
1521;1555652233;-0.0037218637569663908;8.5513427734375
1522;1555652234;-0.00320805257963932;8.49735107421875
1523;1555652235;0.002074908266675486;8.488903808593749
1524;1555652236;0.0029303685768117195;8.45736083984375
1525;1555652237;0.0032907972317868304;8.440380859375
1526;1555652238;0.009271887501450676;8.40869140625
1527;1555652239;-0.015595983642892303;8.3984375
1528;1555652240;-0.0006803095013942718;8.37796630859375
1529;1555652241;0.0005914279040181224;8.357861328124999
1530;1555652242;-0.0007171460244600106;8.31474609375
1531;1555652243;0.006230264022390862;8.30078125
1532;1555652244;-0.0058783726524379255;8.27666015625
1533;1555652245;0.005617995893921095;8.2633056640625
1534;1555652246;0.007565565146962111;8.21700439453125
1535;1555652247;-0.011589919175214548;8.2082763671875
1536;1555652248;-0.010491052975207988;8.1695556640625
1537;1555652249;0.007878310136341257;8.17554931640625
1538;1555652250;0.0043998368292935104;8.138916015625
1539;1555652251;-0.00014238661432698952;8.105468749999998
1540;1555652252;0.004586035186684277;8.09140625
1541;1555652253;-0.011186168230917014;8.105468749999998
1542;1555652254;0.0034023592800897086;7.96168212890625
1543;1555652255;0.020449495495245894;7.7706298828125
1544;1555652256;-0.0286569249969394;7.91614990234375
1545;1555652257;0.015427406908948992;7.9427978515625
1546;1555652258;0.011935967261232238;8.1630859375
1547;1555652259;-0.01967485187104986;8.230041503906248
1548;1555652260;0.011757941813163076;8.29368896484375
1549;1555652261;-0.008326891776251007;8.4318115234375
1550;1555652262;-0.0062382741964117;8.41524658203125
1551;1555652263;0.00269207585218923;8.38656005859375
1552;1555652264;0.006592893563669969;8.39925537109375
1553;1555652265;0.003964879713019871;8.47001953125
1554;1555652266;-0.005763436766664656;8.46055908203125
1555;1555652267;0.0010343063657669974;8.42510986328125
1556;1555652268;-0.0010870437698150466;8.390380859375
1557;1555652269;-0.009613838225899882;8.19158935546875
1558;1555652270;-0.00038941259776252796;8.111730957031249
1559;1555652271;-0.003144354827680973;8.21119384765625
1560;1555652272;0.005867519030820806;8.32969970703125
1561;1555652273;0.00017933903180249;8.17607421875
1562;1555652274;0.012437196815779143;8.30294189453125
1563;1555652275;-0.0021502954062597055;8.3406982421875
1564;1555652276;-0.005972096704210891;8.31632080078125
1565;1555652277;-0.0009988301381455556;8.2592529296875
1566;1555652278;0.004466681407855512;8.24910888671875
1567;1555652279;0.006636696785776467;8.11287841796875
1568;1555652280;-0.029692185080235238;8.040087890625
1569;1555652281;0.031214781183132218;8.18714599609375
1570;1555652282;-0.030503425716089296;8.11728515625
1571;1555652283;0.03830776945861984;8.12244873046875
1572;1555652284;-0.004425743203102115;8.23271484375
1573;1555652285;-0.011300181966791426;8.300146484375
1574;1555652286;-0.003716989240879205;8.0283935546875
1575;1555652287;-0.005743143750727312;8.085498046875
1576;1555652288;0.007609194909802031;8.25908203125
1577;1555652289;0.0006912838660590022;8.279870605468748
1578;1555652290;-0.003788293924343741;8.51973876953125
1579;1555652291;0.011763027931137465;8.7047607421875
1580;1555652292;-0.006826213630410646;8.721875
1581;1555652293;0.0050990026737832385;8.7510498046875
1582;1555652294;-0.00401087442770709;8.802099609375
1583;1555652295;0.011406514348448247;8.81463623046875
1584;1555652296;-0.01062807243070216;8.7518798828125
1585;1555652297;-0.003702302542298246;8.68055419921875
1586;1555652298;0.00631223484235966;8.63984375
1587;1555652299;-0.011617617177645551;8.56702880859375
1588;1555652300;0.00665344604500354;8.49979248046875
1589;1555652301;-0.013444568564594242;8.404345703125
1590;1555652302;0.0149241249025325;8.501013183593749
1591;1555652303;0.010194965664283937;8.486621093749998
1592;1555652304;-0.016681433176497597;8.471679687499998
1593;1555652305;0.01553529251275978;8.4500732421875
1594;1555652306;-0.00656967051002855;8.4105712890625
1595;1555652307;0.004924183186675734;8.3848876953125
1596;1555652308;-0.011649769299792759;8.354003906249998
1597;1555652309;-0.005062712270326072;8.33896484375
1598;1555652310;0.007824185352024624;8.3849365234375
1599;1555652311;-0.008334403275313668;8.351391601562499
1600;1555652312;0.004490587750104566;8.38809814453125
1601;1555652313;0.003840332184727262;8.359057617187498
1602;1555652314;0.0055181519429293455;8.33470458984375
1603;1555652315;-0.006473863565464197;8.27911376953125
1604;1555652316;0.0014046256197223416;8.2722412109375
1605;1555652317;0.004256953792022373;8.272802734375
1606;1555652318;-0.003389939035211686;8.251953124999998
1607;1555652319;0.0023057259831670584;8.254260253906248
1608;1555652320;-0.007903708353687228;8.2323486328125
1609;1555652321;0.0049793951255575905;8.203125
1610;1555652322;-0.002720960863146922;8.203125
1611;1555652323;0.00044953494028126547;8.19034423828125
1612;1555652324;0.00975358455126698;8.14041748046875
1613;1555652325;-0.013438517160880523;8.0625
1614;1555652326;0.007249592595716321;8.15224609375
1615;1555652327;0.01003144221068096;8.11513671875
1616;1555652328;0.000757835743350911;8.0878173828125
1617;1555652329;-0.017831394213595485;8.1029296875
1618;1555652330;0.012249319650641962;8.12841796875
1619;1555652331;-0.0085185872916726;8.16827392578125
1620;1555652332;0.0038351182907892505;8.16724853515625
1621;1555652333;0.010300849930744073;8.15015869140625
1622;1555652334;-0.014383154419465253;8.14173583984375
1623;1555652335;-0.0026896204081486587;8.092297363281249
1624;1555652336;0.01586202335366925;8.05172119140625
1625;1555652337;-0.021134313526495526;8.022802734375
1626;1555652338;0.00417076446916887;8.05487060546875
1627;1555652339;0.0012315176926416893;8.0109375
1628;1555652340;0.0011524063350479045;7.9536865234375
1629;1555652341;0.018105085969769345;7.93355712890625
1630;1555652342;-0.0026401590079544223;7.9858642578125
1631;1555652343;0.00965266286793382;8.0567138671875
1632;1555652344;-0.012206009379159187;7.88497314453125
1633;1555652345;-0.003878445996195779;8.015771484375
1634;1555652346;-0.01405680291031189;8.058544921875
1635;1555652347;0.0012315676625460751;8.0787109375
1636;1555652348;0.009837808173985631;8.2733642578125
1637;1555652349;0.0020858804237822277;8.34854736328125
1638;1555652350;-0.009295935887135764;8.3179443359375
1639;1555652351;-0.0026482108821762338;8.2313720703125
1640;1555652352;0.006237093949375467;8.20299072265625
1641;1555652353;0.006397489276664144;8.2202392578125
1642;1555652354;0.0012637565352038097;8.3396240234375
1643;1555652355;-0.004111014001871367;8.4400634765625
1644;1555652356;-0.003969449912093265;8.3971435546875
1645;1555652357;-0.003860430310510445;8.33599853515625
1646;1555652358;0.015456688098303731;8.26380615234375
1647;1555652359;-0.0036029171948333072;8.34881591796875
1648;1555652360;-0.0003967424126534044;8.38314208984375
1649;1555652361;0.012699047470721913;8.29490966796875
1650;1555652362;-0.04305753378907642;8.043310546875
1651;1555652363;0.03315146739447144;8.2858642578125
1652;1555652364;0.0017859658995594584;8.25635986328125
1653;1555652365;0.0037458608476482152;8.2059814453125
1654;1555652366;-0.0266693363883937;8.04852294921875
1655;1555652367;0.02733739368393536;8.14429931640625
1656;1555652368;-0.03201379658153939;7.984765625
1657;1555652369;0.015925942957996427;8.12193603515625
1658;1555652370;0.008177220593001399;7.9237548828125
1659;1555652371;0.01816880754277411;7.77205810546875
1660;1555652372;-0.019024646491808368;7.97100830078125
1661;1555652373;0.029366165701096212;7.909484863281249
1662;1555652374;-0.03936403461744697;7.498791503906249
1663;1555652375;-0.010957799661285388;7.78779296875
1664;1555652376;0.012581990650729786;8.173388671875
1665;1555652377;-0.0007565867987440384;8.213818359375
1666;1555652378;0.0035593653548529063;8.187841796875
1667;1555652379;-0.0075187980865937375;8.13082275390625
1668;1555652380;0.0017109441665618978;7.871826171875
1669;1555652381;0.01811808586866807;7.763562011718749
1670;1555652382;-0.0062025653625143;8.0001220703125
1671;1555652383;-0.0064741114130154554;7.982983398437499
1672;1555652384;-0.0012325610199131602;7.958117675781249
1673;1555652385;0.010237122148713487;7.88302001953125
1674;1555652386;-0.00829955902482144;7.819921875
1675;1555652387;-0.005057847194541324;7.86475830078125
1676;1555652388;-0.008753296265181027;8.14288330078125
1677;1555652389;0.001027367249942256;8.003076171875
1678;1555652390;0.006545870857556286;8.05443115234375
1679;1555652391;-0.0002837508620940597;8.02491455078125
1680;1555652392;-0.007969769005299667;7.9681396484375
1681;1555652393;0.01061573842122819;7.924304199218749
1682;1555652394;-0.019773163940510735;7.81768798828125
1683;1555652395;0.022335267057197038;7.9294189453125
1684;1555652396;0.003233355856137384;7.8754638671874995
1685;1555652397;0.01580734474863064;7.53387451171875
1686;1555652398;-0.029811700249117837;7.792480468749999
1687;1555652399;-0.0008964796027495454;7.541918945312499
1688;1555652400;0.01254403670336828;7.6985595703125
1689;1555652401;-0.008040134357291;7.80797119140625
1690;1555652402;0.005455733361153049;7.79525146484375
1691;1555652403;-0.0008962220650141768;7.805712890625
1692;1555652404;-0.0003932361063853634;7.80152587890625
1693;1555652405;0.00400661748201033;7.76539306640625
1694;1555652406;-0.009751943500782203;7.80760498046875
1695;1555652407;0.01676983060249661;8.19329833984375
1696;1555652408;-0.0063730573749356725;8.32459716796875
1697;1555652409;-0.005799349120367253;8.204345703125
1698;1555652410;0.003258816618489338;8.2240234375
1699;1555652411;-0.01590520003912513;8.077783203125
1700;1555652412;0.01602966443966707;8.0239013671875
1701;1555652413;-0.003592755610964774;8.1130126953125
1702;1555652414;0.001873376051029825;8.01661376953125
1703;1555652415;0.004140552125717949;7.973803710937499
1704;1555652416;-0.00040994266492134547;8.01864013671875
1705;1555652417;0.006655227368084679;8.010791015625
1706;1555652418;-0.00889953599654206;7.834912109375
1707;1555652419;0.004793059480011143;7.70819091796875
1708;1555652420;-0.0031941871002176617;7.903369140624999
1709;1555652421;-0.008576059823741452;7.92440185546875
1710;1555652422;0.0007970828743435504;7.89796142578125
1711;1555652423;0.004048235994612346;7.734020996093749
1712;1555652424;0.0017979902205924507;7.618530273437499
1713;1555652425;-0.014429797355499293;7.673413085937499
1714;1555652426;0.028625932488160616;7.845288085937499
1715;1555652427;-0.025511843035843574;7.8393310546874995
1716;1555652428;-0.03641617909268122;7.580273437499999
1717;1555652429;0.04682307920412386;7.96239013671875
1718;1555652430;-0.005142591824340889;8.39659423828125
1719;1555652431;0.0036836623779550643;8.60416259765625
1720;1555652432;-0.002679752807817934;8.5501220703125
1721;1555652433;-0.0003466488658184804;8.479309082031248
1722;1555652434;-0.0014481868112392023;8.43292236328125
1723;1555652435;0.0017753565628176593;8.37308349609375
1724;1555652436;0.0006781254160324127;8.35115966796875
1725;1555652437;-0.00025819032683090353;8.34398193359375
1726;1555652438;-0.0015392869403591104;8.31507568359375
1727;1555652439;0.0033773576390568197;8.2696533203125
1728;1555652440;-0.010549137105730648;8.20869140625
1729;1555652441;0.00973225352077323;8.262353515625
1730;1555652442;0.002141108874899344;8.237097167968749
1731;1555652443;-0.0029524058342491025;8.207568359375
1732;1555652444;-0.00028179912794870556;8.177587890625
1733;1555652445;0.0004624743059769615;8.149755859375
1734;1555652446;0.0006344901884067105;8.116735839843749
1735;1555652447;0.004972605330517615;8.1642578125
1736;1555652448;0.00028534289883619537;8.3013671875
1737;1555652449;0.0007147457317405366;8.397314453125
1738;1555652450;-0.0006260110898217132;8.4124267578125
1739;1555652451;-0.004069414736326376;8.36522216796875
1740;1555652452;0.013781793910343983;8.22291259765625
1741;1555652453;0.02988032586230157;8.15350341796875
1742;1555652454;-0.042111705569486846;7.96978759765625
1743;1555652455;-0.02880580174842002;7.960388183593749
1744;1555652456;0.08384424776296566;8.3103759765625
1745;1555652457;-0.05335959597270544;8.435302734375
1746;1555652458;0.03483275475576182;8.6272705078125
1747;1555652459;-0.034671485420876454;8.17462158203125
1748;1555652460;-0.0034858607295459114;8.29625244140625
1749;1555652461;-0.0029310695047774804;8.43817138671875
1750;1555652462;0.006312487311417991;8.106201171875
1751;1555652463;0.016661342538021127;8.2611572265625
1752;1555652464;-0.025689016806120693;8.34227294921875
1753;1555652465;0.003550054293186131;8.17769775390625
1754;1555652466;0.010617831499302328;8.116821289062498
1755;1555652467;0.007705752182043149;8.1671630859375
1756;1555652468;-0.007002273536803568;8.22850341796875
1757;1555652469;-0.0058611091108476945;8.075390625
1758;1555652470;0.0006061637858182088;7.85965576171875
1759;1555652471;0.0009842394789797834;8.02054443359375
1760;1555652472;-0.010872122823271648;8.147521972656248
1761;1555652473;0.005273813097611979;8.18638916015625
1762;1555652474;-0.022341523305198677;8.2802734375
1763;1555652475;0.06838192073576323;8.54715576171875
1764;1555652476;-0.04150437704910738;8.5604736328125
1765;1555652477;-0.005779121818617949;8.64197998046875
1766;1555652478;0.0020412503309090346;8.581689453125
1767;1555652479;0.0028427096871593257;8.558740234375
1768;1555652480;-0.0013546491759678164;8.52919921875
1769;1555652481;0.0028209722452294597;8.4711669921875
1770;1555652482;0.011400444223726266;8.4355712890625
1771;1555652483;-0.013230317830726625;8.39290771484375
1772;1555652484;0.002054678713223837;8.31827392578125
1773;1555652485;-0.003054494076969591;8.279638671875
1774;1555652486;0.007793637275342911;8.2763671875
1775;1555652487;0.006633958240179137;8.24920654296875
1776;1555652488;-0.018703462199337287;8.20565185546875
1777;1555652489;0.007482350098961211;8.203857421875
1778;1555652490;0.01265780002990352;8.13380126953125
1779;1555652491;-0.00304348716399969;8.2746826171875
1780;1555652492;-0.016181338783519798;8.2796630859375
1781;1555652493;0.0027530845596654132;8.26004638671875
1782;1555652494;-0.0004571354249150452;8.4069091796875
1783;1555652495;0.00757026055941935;8.62147216796875
1784;1555652496;-0.006728012751109567;8.686181640625
1785;1555652497;0.0010035123161354943;8.50897216796875
1786;1555652498;-0.00015834974629159255;8.51278076171875
1787;1555652499;-0.017290886631860222;8.57952880859375
1788;1555652500;0.013389467192176463;8.64202880859375
1789;1555652501;0.012833453160958469;8.5427001953125
1790;1555652502;-0.00844079365481816;8.33865966796875
1791;1555652503;-0.011636113765401513;8.35283203125
1792;1555652504;0.02126287515326941;8.43974609375
1793;1555652505;0.001716916572345078;8.387548828125
1794;1555652506;-0.012099332204791053;8.369531249999998
1795;1555652507;0.011909688169983999;8.3658447265625
1796;1555652508;-0.005380059157278024;8.39248046875
1797;1555652509;-0.0048024657151951216;8.42252197265625
1798;1555652510;0.01207843341594257;8.391357421875
1799;1555652511;0.0008410078041898343;8.33634033203125
1800;1555652512;-0.01808444573151509;8.3337890625
1801;1555652513;-0.0018250255120522332;8.32728271484375
1802;1555652514;0.0009676065429400553;8.2732177734375
1803;1555652515;0.0029095010044429283;8.247497558593748
1804;1555652516;-0.001715616218705283;8.246594238281249
1805;1555652517;0.004105029816314857;8.239331054687499
1806;1555652518;0.006037174749235367;8.30001220703125
1807;1555652519;-0.00951043623738298;8.39381103515625
1808;1555652520;-0.00336379201818544;8.39749755859375
1809;1555652521;0.0024486089962884976;8.369140624999998
1810;1555652522;-0.0014557509500356884;8.3405029296875
1811;1555652523;-0.0032783914280783504;8.30855712890625
1812;1555652524;0.006472173648916281;8.2306884765625
1813;1555652525;-0.00875086766443477;8.25633544921875
1814;1555652526;0.012700671794297264;8.133642578124999
1815;1555652527;-0.0007750599570676273;8.11680908203125
1816;1555652528;0.011688767930550816;8.1046142578125
1817;1555652529;-0.007400609056469752;8.11083984375
1818;1555652530;-0.006138442663000875;8.17054443359375
1819;1555652531;-0.010334516434725537;8.0792724609375
1820;1555652532;0.022358625332812892;7.938134765625
1821;1555652533;-0.01110236590203698;7.925793457031249
1822;1555652534;-0.003421280020929486;7.9926025390625
1823;1555652535;0.002680256568647825;8.00433349609375
1824;1555652536;0.00258185259699802;7.984216308593749
1825;1555652537;0.003364470572295553;8.0037109375
1826;1555652538;-0.010605277476251715;7.983398437499999
1827;1555652539;0.00029903441088310006;7.992431640624999
1828;1555652540;-0.004578220032685184;8.07288818359375
1829;1555652541;-0.005468482688624248;8.1498779296875
1830;1555652542;-0.002498786308558939;8.0139404296875
1831;1555652543;0.006761584374645603;8.234814453125
1832;1555652544;0.010590878421496515;8.2688232421875
1833;1555652545;0.002073637790384277;8.25819091796875
1834;1555652546;0.005338180607494938;8.32109375
1835;1555652547;-0.003277324050052894;8.33231201171875
1836;1555652548;0.001248842571464714;8.575634765625
1837;1555652549;-0.008049630041731459;8.669580078125
1838;1555652550;0.002507851435507598;8.6094482421875
1839;1555652551;0.0010406151236116831;8.5544921875
1840;1555652552;-0.0023222318594129307;8.52650146484375
1841;1555652553;0.00045971751877311274;8.5205078125
1842;1555652554;0.005656956550260067;8.49437255859375
1843;1555652555;-0.0027415675930384693;8.4331298828125
1844;1555652556;-0.0035810520525606676;8.357958984374998
1845;1555652557;0.0031141026664796966;8.3720703125
1846;1555652558;0.0029760693718237866;8.44688720703125
1847;1555652559;-0.004364803819914663;8.44326171875
1848;1555652560;0.002446527648328852;8.41195068359375
1849;1555652561;0.0018718616715147256;8.414404296875
1850;1555652562;0.005726014135543346;8.44034423828125
1851;1555652563;-0.008302764911540448;8.41728515625
1852;1555652564;-0.014190459776042488;8.4585693359375
1853;1555652565;0.024415484376500873;8.4669677734375
1854;1555652566;-0.010129547914651616;8.401513671875
1855;1555652567;0.004081653238880998;8.374023437499998
1856;1555652568;0.009419261357569141;8.39744873046875
1857;1555652569;-0.014244880969126595;8.38724365234375
1858;1555652570;0.009665514288989699;8.353808593749998
1859;1555652571;-0.013245323325412226;8.383508300781248
1860;1555652572;0.010050353090581022;8.5384521484375
1861;1555652573;-0.00802609372159534;8.555908203125
1862;1555652574;0.0036415170908277008;8.49515380859375
1863;1555652575;-0.003728361447273089;8.433984375
1864;1555652576;-0.003134958272618743;8.442724609375
1865;1555652577;0.006006869156176591;8.578369140625
1866;1555652578;-0.0034141382863049578;8.548779296875
1867;1555652579;0.00458752074310426;8.487744140625
1868;1555652580;-0.0026786733748097764;8.5663330078125
1869;1555652581;0.014926210340214895;8.6369140625
1870;1555652582;-0.022763044360060894;8.5823974609375
1871;1555652583;0.007206808496081271;8.5684814453125
1872;1555652584;-0.0017486025863674487;8.5278076171875
1873;1555652585;0.012380831270265387;8.488122558593748
1874;1555652586;0.0033747141581573522;8.46656494140625
1875;1555652587;-0.012003367161655247;8.4760498046875
1876;1555652588;0.0006004793180522772;8.51016845703125
1877;1555652589;0.0047333019390933834;8.496093749999998
1878;1555652590;-0.013102742913106275;8.46627197265625
1879;1555652591;-0.00020377689680427445;8.42657470703125
1880;1555652592;0.0010582352023231737;8.4048583984375
1881;1555652593;-0.0013951556024467287;8.3983642578125
1882;1555652594;0.0024170255542044056;8.37406005859375
1883;1555652595;-0.0026441101331395557;8.351281738281248
1884;1555652596;0.001321789724252175;8.32850341796875
1885;1555652597;0.0019134903415961011;8.30401611328125
1886;1555652598;-0.002148938364148248;8.292333984375
1887;1555652599;0.004406685044316345;8.26795654296875
1888;1555652600;0.005886463984037795;8.2531982421875
1889;1555652601;-0.00917744322391433;8.51337890625
1890;1555652602;0.0029155604202386874;8.6880615234375
1891;1555652603;-0.0044190935851456;8.64638671875
1892;1555652604;0.000937618115311541;8.58267822265625
1893;1555652605;-0.003872617242864018;8.58125
1894;1555652606;0.002484987840058935;8.6854736328125
1895;1555652607;0.0017191833442911524;8.6347412109375
1896;1555652608;-0.0013145529340622684;8.598376464843748
1897;1555652609;0.0029572849970869396;8.56998291015625
1898;1555652610;0.009048792243846034;8.5495361328125
1899;1555652611;-4.1913777252880564e-05;8.5901123046875
1900;1555652612;-0.008131224926468335;8.6395751953125
1901;1555652613;0.013549582695561568;8.5929443359375
1902;1555652614;0.004475237423500407;8.5534423828125
1903;1555652615;-0.0014947290601959123;8.559521484375
1904;1555652616;-0.01640394858170101;8.543359375
1905;1555652617;0.0036749691939180055;8.51903076171875
1906;1555652618;-0.010742633557294259;8.60677490234375
1907;1555652619;0.008633491194449557;8.8242919921875
1908;1555652620;0.00029660585386922145;8.815283203125
1909;1555652621;-0.0008979445964936505;8.79759521484375
1910;1555652622;0.002111680733695664;8.84959716796875
1911;1555652623;-0.007508663623390578;8.86888427734375
1912;1555652624;0.002161630768007205;8.76815185546875
1913;1555652625;0.0018276695639098475;8.69898681640625
1914;1555652626;-0.0010573284660246526;8.67965087890625
1915;1555652627;-0.0002776930579599774;8.64984130859375
1916;1555652628;-0.0009593198249544816;8.62005615234375
1917;1555652629;0.00065850643057054;8.642578125
1918;1555652630;-0.0014179236124187348;8.61995849609375
1919;1555652631;-0.0005489987592283973;8.5832763671875
1920;1555652632;0.00018789025051166455;8.55478515625
1921;1555652633;-0.0009239985718034192;8.56907958984375
1922;1555652634;0.0009191518394547283;8.54505615234375
1923;1555652635;-0.0004508777468371699;8.52069091796875
1924;1555652636;-0.0004603139269866099;8.49642333984375
1925;1555652637;-0.0036690784521848058;8.495629882812498
1926;1555652638;0.006445934132297217;8.457275390625
1927;1555652639;-0.00124248437575949;8.46546630859375
1928;1555652640;0.0027572336534194314;8.58656005859375
1929;1555652641;-0.00022615970532017363;8.618701171875
1930;1555652642;0.016239779120096505;8.56422119140625
1931;1555652643;-0.0008568482317492671;8.5203369140625
1932;1555652644;0.0007440650295065616;8.492480468749998
1933;1555652645;0.0018248637240539437;8.471679687499998
1934;1555652646;-0.0026526782149221364;8.460546875
1935;1555652647;-0.019118150377081092;8.42757568359375
1936;1555652648;-0.0008456452953023465;8.40980224609375
1937;1555652649;0.0004158545101323305;8.46378173828125
1938;1555652650;0.00022601747727909603;8.4576171875
1939;1555652651;0.002531759200897678;8.42020263671875
1940;1555652652;-0.0017095043327654135;8.40745849609375
1941;1555652653;0.007197246332754923;8.46422119140625
1942;1555652654;0.009101283469650636;8.44810791015625
1943;1555652655;-0.011509226782557436;8.482275390625
1944;1555652656;0.0015608770194588332;8.5861083984375
1945;1555652657;0.0011141588838553507;8.58804931640625
1946;1555652658;-0.008018654090750997;8.57430419921875
1947;1555652659;0.0031962941477828356;8.70203857421875
1948;1555652660;-0.003397636438387089;8.725183105468748
1949;1555652661;0.0011021844355996531;8.6744384765625
1950;1555652662;-0.0005144798955972848;8.614208984375
1951;1555652663;0.0015074032505593853;8.5851318359375
1952;1555652664;-0.0001092227172489935;8.57484130859375
1953;1555652665;0.0015167201664163291;8.59967041015625
1954;1555652666;-0.0012322182472698907;8.5884033203125
1955;1555652667;0.008677658892749626;8.55067138671875
1956;1555652668;-0.005881345988636615;8.56861572265625
1957;1555652669;0.0069390768345078185;8.62996826171875
1958;1555652670;-0.004235555072058748;8.618164062499998
1959;1555652671;-0.0049663702052988494;8.6388427734375
1960;1555652672;0.007055456407801812;8.63873291015625
1961;1555652673;0.006233184618318529;8.642578125
1962;1555652674;-0.002660914275758483;8.61636962890625
1963;1555652675;0.007739649068937604;8.58067626953125
1964;1555652676;-0.0005709314036455022;8.5504638671875
1965;1555652677;-0.0013237558663427057;8.521826171875
1966;1555652678;-0.015838528510277908;8.496093749999998
1967;1555652679;-0.0024040820817020797;8.398095703125
1968;1555652680;-0.0022817102644510784;8.4229736328125
1969;1555652681;0.001378702818219081;8.41639404296875
1970;1555652682;0.013156876157448783;8.454443359375
1971;1555652683;0.009760729502107256;8.463305664062498
1972;1555652684;-0.01748640997851433;8.550927734375
1973;1555652685;0.006592162452124612;8.616638183593748
1974;1555652686;-0.0025308325775469337;8.57486572265625
1975;1555652687;-0.0005937804587866361;8.5232177734375
1976;1555652688;9.551936952618731e-05;8.485192871093748
1977;1555652689;-0.005200619123291089;8.44161376953125
1978;1555652690;0.0019503759256779898;8.4080078125
1979;1555652691;0.007784166845399476;8.376416015625
1980;1555652692;-0.0040669308394569136;8.33497314453125
1981;1555652693;0.008430215117502705;8.3037353515625
1982;1555652694;-0.009983394728746596;8.3888671875
1983;1555652695;-0.00010646072039710205;8.5581787109375
1984;1555652696;-0.008325617372372964;8.604040527343749
1985;1555652697;0.004215130009048233;8.569287109375
1986;1555652698;-0.005288851884188552;8.52620849609375
1987;1555652699;0.01658466792791518;8.488391113281248
1988;1555652700;0.003641947293761712;8.4563720703125
1989;1555652701;-0.010975451677171611;8.469189453125
1990;1555652702;0.0014574050039952624;8.496093749999998
1991;1555652703;-0.004249775234443683;8.46409912109375
1992;1555652704;0.009520473103341242;8.41387939453125
1993;1555652705;-0.01262489052115269;8.38765869140625
1994;1555652706;0.009601827026858082;8.356982421875
1995;1555652707;-0.002805206770453997;8.3309326171875
1996;1555652708;0.0024732085503222233;8.30115966796875
1997;1555652709;0.0004432952115749742;8.2912109375
1998;1555652710;-0.009482693189680367;8.258056640625
1999;1555652711;3.0097743191743498e-05;8.251953124999998
2000;1555652712;7.109436297949665e-05;8.275146484375
2001;1555652713;-0.0009943642958657425;8.2631591796875
2002;1555652714;0.00401910155433043;8.224462890624999
2003;1555652715;-0.009763743699222383;8.33328857421875
2004;1555652716;0.007693893504819217;8.558154296875
2005;1555652717;0.0007296700245103478;8.56839599609375
2006;1555652718;0.01036996089001548;8.544921875
2007;1555652719;-0.001621540114763081;8.585791015625
2008;1555652720;0.0007459069573373393;8.690087890625
2009;1555652721;0.0020509249195756665;8.658056640625
2010;1555652722;-0.0022158042306720206;8.58739013671875
2011;1555652723;-0.0163190106256554;8.61988525390625
2012;1555652724;0.007856333187021804;8.76624755859375
2013;1555652725;-0.00133789335705847;8.8298828125
2014;1555652726;0.01203869344071894;8.849121093749998
2015;1555652727;-0.012748652715193048;8.898583984375
2016;1555652728;0.017552637940148427;8.9033935546875
2017;1555652729;-0.00845873173905836;8.84415283203125
2018;1555652730;0.002225102654112795;8.77293701171875
2019;1555652731;-0.0014656902549730246;8.7349609375
2020;1555652732;0.00021327055706863354;8.64462890625
2021;1555652733;-0.013536496816565323;8.60924072265625
2022;1555652734;-0.0023545860312526113;8.591650390625
2023;1555652735;0.014758343031478344;8.7153564453125
2024;1555652736;-0.006648975409173193;8.69774169921875
2025;1555652737;-0.00046530256793453497;8.63719482421875
2026;1555652738;-0.0014093143025857644;8.596215820312498
2027;1555652739;0.004081057308691364;8.593322753906248
2028;1555652740;0.0003963775335962292;8.5787841796875
2029;1555652741;0.00041951680810129865;8.63245849609375
2030;1555652742;0.0005448552885295266;8.61878662109375
2031;1555652743;-0.002253749165811796;8.57188720703125
2032;1555652744;0.002117938929909571;8.5693359375
2033;1555652745;0.0024571582460475093;8.54696044921875
2034;1555652746;-0.004174877318782327;8.60213623046875
2035;1555652747;0.014527907071477074;8.66365966796875
2036;1555652748;-0.0048991961544018895;8.62796630859375
2037;1555652749;-0.0019633065353694495;8.58658447265625
2038;1555652750;-0.00840791684939661;8.54615478515625
2039;1555652751;-0.002875008837090288;8.523046875
2040;1555652752;-0.0004533802668539014;8.50223388671875
2041;1555652753;0.00258541384270887;8.483117675781248
2042;1555652754;-0.004781238128841229;8.46136474609375
2043;1555652755;-0.00018316944501724488;8.43870849609375
2044;1555652756;-0.0003925221751389022;8.4206787109375
2045;1555652757;0.0017863323751445535;8.40377197265625
2046;1555652758;0.001118145150875352;8.39068603515625
2047;1555652759;-0.0014351128720623762;8.376904296875
2048;1555652760;-0.0011002326417963054;8.358874511718748
2049;1555652761;0.00073767893533687;8.349609374999998
2050;1555652762;0.0008728881257931668;8.33990478515625
2051;1555652763;0.0036292582377833718;8.3251953125
2052;1555652764;0.0009742027508518053;8.32454833984375
2053;1555652765;1.7600358534407056e-05;8.30169677734375
2054;1555652766;0.0007020544541003761;8.30078125
2055;1555652767;0.00095382122677908;8.28323974609375
2056;1555652768;-0.005191949929824225;8.22362060546875
2057;1555652769;0.0036139069367708975;8.20501708984375
2058;1555652770;0.014889266788508196;8.18272705078125
2059;1555652771;-0.014747222113498054;8.1787109375
2060;1555652772;-0.0002559656384966985;8.247802734375
2061;1555652773;-0.006075081310978285;8.32095947265625
2062;1555652774;1.9350907905311034e-05;8.315576171875
2063;1555652775;0.001891281673196382;8.28270263671875
2064;1555652776;-0.0001593570090567564;8.2763671875
2065;1555652777;0.005220837141809071;8.25494384765625
2066;1555652778;0.006616307238628267;8.230737304687498
2067;1555652779;-0.000941841366040779;8.227539062499998
2068;1555652780;-0.0034723925260537994;8.22603759765625
2069;1555652781;-0.0032046964572479434;8.203125
2070;1555652782;0.001299638586729419;8.19017333984375
2071;1555652783;-0.0008349918795419433;8.1787109375
2072;1555652784;0.0038811282856420068;8.189892578125
2073;1555652785;0.001513384296453757;8.1790283203125
2074;1555652786;0.003092129673661646;8.183203125
2075;1555652787;-0.014257990694137624;8.1864013671875
2076;1555652788;0.0016548212799572689;8.1787109375
2077;1555652789;0.00033651455593054134;8.22998046875
2078;1555652790;-0.0013861269785714737;8.2701904296875
2079;1555652791;-0.00043559726560374676;8.234130859374998
2080;1555652792;0.0017698021636517764;8.19847412109375
2081;1555652793;-0.0031828664116157696;8.1727783203125
2082;1555652794;0.0022140297288556926;8.154296875
2083;1555652795;-0.0017459205553408388;8.21083984375
2084;1555652796;0.002483293609510207;8.235107421874998
2085;1555652797;0.008954101318278982;8.260986328125
2086;1555652798;0.005678623423817481;8.362890625
2087;1555652799;-0.010254798798244103;8.35802001953125
2088;1555652800;-0.00011408657889434968;8.2979248046875
2089;1555652801;0.013037889522868685;8.264404296875
2090;1555652802;0.001507606414882354;8.21834716796875
2091;1555652803;0.0059847767236277626;8.18682861328125
2092;1555652804;-0.018095904561131356;8.17698974609375
2093;1555652805;0.0006330375123911712;8.18333740234375
2094;1555652806;-0.006207869703322479;8.1787109375
2095;1555652807;-0.002106596061215615;8.2717041015625
2096;1555652808;-0.001528403162704541;8.42220458984375
2097;1555652809;0.002091039954232644;8.41519775390625
2098;1555652810;-0.00030938960215160893;8.37823486328125
2099;1555652811;-0.001167715656873432;8.349560546874999
2100;1555652812;0.0023403956605583497;8.3306884765625
2101;1555652813;0.004642611839671974;8.31361083984375
2102;1555652814;-0.0025894297205223556;8.35067138671875
2103;1555652815;0.0009119640264225523;8.44888916015625
2104;1555652816;0.001067559081367376;8.4170166015625
2105;1555652817;-0.004630881904027251;8.37152099609375
2106;1555652818;-0.004913771045729862;8.3291748046875
2107;1555652819;0.0047868413152470195;8.28172607421875
2108;1555652820;-0.0009158026187680053;8.27513427734375
2109;1555652821;-0.003664492156509332;8.25909423828125
2110;1555652822;0.027433680173764727;8.241650390625
2111;1555652823;-0.013709113246312108;8.41788330078125
2112;1555652824;0.0024547806985742637;8.56622314453125
2113;1555652825;-0.00605766187370155;8.5390625
2114;1555652826;-0.005885225176980196;8.5161376953125
2115;1555652827;0.00965796238851102;8.59141845703125
2116;1555652828;0.0046118534987008505;8.57349853515625
2117;1555652829;-0.014430472742908363;8.50557861328125
2118;1555652830;-0.0010785912216793095;8.4636474609375
2119;1555652831;0.007696766216419226;8.43206787109375
2120;1555652832;0.0006255000549678066;8.41971435546875
2121;1555652833;-0.002716541473016339;8.3984375
2122;1555652834;0.01200490090800022;8.3775146484375
2123;1555652835;-0.012095429503384117;8.353710937499999
2124;1555652836;-0.0018730750660765757;8.34327392578125
2125;1555652837;-0.0011748689276685682;8.30567626953125
2126;1555652838;0.016697285650976154;8.28343505859375
2127;1555652839;-0.016572131482797604;8.2673583984375
2128;1555652840;0.0008045050979452286;8.249951171874999
2129;1555652841;-0.004237187165776507;8.227539062499998
2130;1555652842;0.004854111099124607;8.21943359375
2131;1555652843;0.002251752549521016;8.376220703125
2132;1555652844;-0.0022567382371601833;8.471679687499998
2133;1555652845;0.0006872028345232764;8.43194580078125
2134;1555652846;-0.003742960577886387;8.3870361328125
2135;1555652847;-0.0018631310399246008;8.383544921875
2136;1555652848;0.005503011842212459;8.47769775390625
2137;1555652849;-0.0036390420933496226;8.487487792968748
2138;1555652850;0.002143295324633304;8.44974365234375
2139;1555652851;0.00010155227015482796;8.43226318359375
2140;1555652852;-0.001617129446820652;8.39622802734375
2141;1555652853;-0.001886812580409051;8.361364746093749
2142;1555652854;-0.0011856129730476257;8.33607177734375
2143;1555652855;0.0023731237301763903;8.30592041015625
2144;1555652856;0.0013871319856575252;8.29620361328125
2145;1555652857;0.007640546344898601;8.2763671875
2146;1555652858;0.003203429926862723;8.2404541015625
2147;1555652859;-0.013990562172081411;8.227539062499998
2148;1555652860;0.011470677136854734;8.227539062499998
2149;1555652861;-0.00669194569444042;8.227526855468748
2150;1555652862;-0.0008352001187767255;8.20101318359375
2151;1555652863;0.015637558980132426;8.1787109375
2152;1555652864;-0.06494863443682013;8.16910400390625
2153;1555652865;0.06621615615391709;8.20078125
2154;1555652866;-0.014923511402211556;8.227539062499998
2155;1555652867;0.0015426508014572521;8.227539062499998
2156;1555652868;-0.0008578636006060146;8.20330810546875
2157;1555652869;0.0019492422515617492;8.1994140625
2158;1555652870;-0.002779976003590132;8.1787109375
2159;1555652871;-0.00043462934771868085;8.16229248046875
2160;1555652872;0.0006462938444992623;8.154296875
2161;1555652873;0.0007583013905769176;8.11767578125
2162;1555652874;0.009489994998412202;8.0891845703125
2163;1555652875;0.005523986707093429;8.073486328125
2164;1555652876;-0.0013552337319876883;8.04542236328125
2165;1555652877;0.002713982451811524;8.0236328125
2166;1555652878;-0.0021228231592391247;7.997436523437499
2167;1555652879;0.0011066375209725697;7.981823730468749
2168;1555652880;-0.0034546936034334317;7.958984374999999
2169;1555652881;-0.0019195387525450208;7.93199462890625
2170;1555652882;-0.012968184965164746;7.907470703125
2171;1555652883;0.0027735922783507826;7.8898681640625
2172;1555652884;0.00933031885362675;7.885742187499999
2173;1555652885;-0.014443778998894465;7.869006347656249
2174;1555652886;-0.00010809324670385518;7.833117675781249
2175;1555652887;0.0067521132032305736;7.860485839843749
2176;1555652888;-0.007520216149416463;8.04478759765625
2177;1555652889;0.024978279770071853;8.124816894531248
2178;1555652890;-0.02151372706091214;8.2075439453125
2179;1555652891;0.013995418226941858;8.42796630859375
2180;1555652892;-0.01279905823688345;8.496093749999998
2181;1555652893;-0.002027558879125589;8.483154296874998
2182;1555652894;0.012469890489792532;8.439208984375
2183;1555652895;-0.016547801885858006;8.40113525390625
2184;1555652896;0.007507367618619629;8.3772705078125
2185;1555652897;-0.00017004984971166862;8.374023437499998
2186;1555652898;0.005987625945721108;8.353210449218748
2187;1555652899;0.005154963480632083;8.33568115234375
2188;1555652900;-0.013182509558404337;8.306591796875
2189;1555652901;-0.005864556792971609;8.2793212890625
